,time,Viscosity,Viscosity_mark,Temperature,Temperature_mark
0,0.0,173.5,processor_sweep,20.9,
1,1.0,173.0,inner_processor_check,20.9,
2,2.0,173.0,inner_processor_check,20.9,
3,3.0,173.0,inner_processor_check,20.9,
4,4.0,173.0,inner_processor_check,20.9,
5,5.0,173.5,,20.9,
6,6.0,173.5,,20.9,
7,7.0,174.0,,20.9,
8,8.0,174.0,,20.9,
9,9.0,174.0,,20.9,
10,10.0,173.5,,20.9,
11,11.0,174.0,,20.9,
12,12.0,173.0,inner_processor_check,20.9,
13,13.0,173.0,inner_processor_check,20.9,
14,14.0,173.0,inner_processor_check,20.9,
15,15.0,173.5,,20.9,
16,16.0,173.5,,20.9,
17,17.0,174.0,,20.9,
18,18.0,174.0,,20.9,
19,19.0,174.0,,20.9,
20,20.0,174.0,,20.9,
21,21.0,174.0,,20.9,
22,22.0,173.0,inner_processor_check,20.9,
23,23.0,173.0,inner_processor_check,20.9,
24,24.0,173.5,,20.9,
25,25.0,173.5,,20.9,
26,26.0,173.5,,20.9,
27,27.0,174.5,,20.9,
28,28.0,174.5,,20.9,
29,29.0,174.5,,20.9,
30,30.0,174.0,,20.9,
31,31.0,174.0,,20.9,
32,32.0,173.5,,20.9,
33,33.0,173.0,inner_processor_check,20.9,
34,34.0,173.5,inner_processor_check,20.9,
35,35.0,173.5,,20.9,
36,36.0,173.5,,20.9,
37,37.0,174.5,,20.9,
38,38.0,174.5,,20.9,
39,39.0,174.5,,20.9,
40,40.0,174.5,,20.9,
41,41.0,174.5,,20.9,
42,42.0,173.5,,20.9,
43,43.0,173.5,,20.9,
44,44.0,173.5,,20.9,
45,45.0,174.0,,20.9,
46,46.0,174.0,,20.9,
47,47.0,175.0,processor_sweep,20.9,
48,48.0,175.0,inner_processor_check,20.9,
49,49.0,174.5,,20.9,
50,50.0,174.5,,20.9,
51,51.0,174.5,,20.9,
52,52.0,173.5,,20.9,
53,53.0,173.5,,20.9,
54,54.0,174.0,,20.9,
55,55.0,174.0,,20.9,
56,56.0,174.0,,20.9,
57,57.0,175.0,processor_sweep,20.9,
58,58.0,175.0,inner_processor_check,20.9,
59,59.0,174.5,,20.9,
60,60.0,174.5,,20.9,
61,61.0,174.5,,20.9,
62,62.0,174.0,,20.9,
63,63.0,173.5,,20.9,
64,64.0,174.0,,20.9,
65,65.0,174.0,,20.9,
66,66.0,174.0,,20.9,
67,67.0,175.0,inner_processor_check,20.9,
68,68.0,175.0,inner_processor_check,20.9,
69,69.0,175.0,inner_processor_check,20.9,
70,70.0,174.5,,20.9,
71,71.0,174.5,,20.9,
72,72.0,174.0,,20.9,
73,73.0,173.5,inner_processor_check,20.9,
74,74.0,174.0,,20.9,
75,75.0,174.0,,20.9,
76,76.0,174.5,,20.9,
77,77.0,175.0,inner_processor_check,20.9,
78,78.0,175.0,inner_processor_check,20.9,
79,79.0,175.0,inner_processor_check,20.9,
80,80.0,174.5,,20.9,
81,81.0,175.0,inner_processor_check,20.9,
82,82.0,174.0,,20.9,
83,83.0,173.5,,20.9,
84,84.0,174.0,,20.9,
85,85.0,174.0,,20.9,
86,86.0,174.5,,20.9,
87,87.0,175.0,inner_processor_check,20.9,
88,88.0,175.5,,20.9,
89,89.0,175.0,inner_processor_check,20.9,
90,90.0,175.0,inner_processor_check,20.9,
91,91.0,175.0,inner_processor_check,20.9,
92,92.0,174.0,,20.9,
93,93.0,174.0,,20.9,
94,94.0,174.5,,20.9,
95,95.0,174.5,,20.9,
96,96.0,174.5,,20.9,
97,97.0,175.0,inner_processor_check,20.9,
98,98.0,175.5,,20.9,
99,99.0,175.0,inner_processor_check,20.9,
100,100.0,175.0,inner_processor_check,20.9,
101,101.0,175.0,inner_processor_check,20.9,
102,102.0,174.5,,20.9,
103,103.0,174.0,,20.9,
104,104.0,174.5,,20.9,
105,105.0,174.5,,20.9,
106,106.0,174.5,,20.9,
107,107.0,175.5,,20.9,
108,108.0,175.5,,20.9,
109,109.0,175.0,inner_processor_check,20.9,
110,110.0,175.0,inner_processor_check,20.9,
111,111.0,175.0,inner_processor_check,20.9,
112,112.0,174.5,,20.9,
113,113.0,174.0,,20.9,
114,114.0,174.5,,20.9,
115,115.0,174.5,,20.9,
116,116.0,174.5,,20.9,
117,117.0,175.5,,20.9,
118,118.0,175.5,,20.9,
119,119.0,175.6,,20.9,
120,120.0,175.0,inner_processor_check,20.9,
121,121.0,175.0,inner_processor_check,20.9,
122,122.0,174.5,,20.9,
123,123.0,174.0,,20.9,
124,124.0,174.5,,20.9,
125,125.0,174.5,,20.9,
126,126.0,174.5,,20.9,
127,127.0,175.5,processor_sweep,20.9,
128,128.0,175.5,,20.9,
129,129.0,175.5,,20.9,
130,130.0,175.0,processor_sweep,20.9,
131,131.0,175.0,inner_processor_check,20.9,
132,132.0,174.5,,20.9,
133,133.0,174.0,,20.9,
134,134.0,174.5,,20.9,
135,135.0,174.5,,20.9,
136,136.0,174.5,,20.9,
137,137.0,175.5,,20.9,
138,138.0,175.5,,20.9,
139,139.0,175.5,,20.9,
140,140.0,175.0,inner_processor_check,20.9,
141,141.0,175.0,inner_processor_check,20.9,
142,142.0,174.5,,20.9,
143,143.0,174.0,,20.9,
144,144.0,174.5,,20.9,
145,145.0,174.5,,20.9,
146,146.0,174.5,,20.9,
147,147.0,175.5,,20.9,
148,148.0,175.5,,20.9,
149,149.0,175.5,,20.9,
150,150.0,175.5,,20.9,
151,151.0,175.5,,20.9,
152,152.0,174.6,,20.9,
153,153.0,174.0,,20.9,
154,154.0,174.5,,20.9,
155,155.0,174.5,,20.9,
156,156.0,174.5,,20.9,
157,157.0,175.5,,20.9,
158,158.0,176.0,,20.9,
159,159.0,175.5,,20.9,
160,160.0,175.5,,20.9,
161,161.0,175.5,,20.9,
162,162.0,174.5,,20.9,
163,163.0,174.0,inner_processor_check,20.9,
164,164.0,174.5,,20.9,
165,165.0,174.5,,20.9,
166,166.0,174.5,,20.9,
167,167.0,175.5,,20.9,
168,168.0,176.0,inner_processor_check,20.9,
169,169.0,175.5,,20.9,
170,170.0,175.5,,20.9,
171,171.0,175.5,,20.9,
172,172.0,174.5,,20.9,
173,173.0,174.0,,20.9,
174,174.0,174.5,,20.9,
175,175.0,174.5,,20.9,
176,176.0,175.0,inner_processor_check,20.9,
177,177.0,175.5,,20.9,
178,178.0,176.0,inner_processor_check,20.9,
179,179.0,175.5,,20.9,
180,180.0,175.5,,20.9,
181,181.0,175.5,,20.9,
182,182.0,174.6,,20.9,
183,183.0,174.0,,20.9,
184,184.0,174.5,,20.9,
185,185.0,174.5,,20.9,
186,186.0,175.0,inner_processor_check,20.9,
187,187.0,176.0,,20.9,
188,188.0,176.0,inner_processor_check,20.9,
189,189.0,175.5,,20.9,
190,190.0,175.5,,20.9,
191,191.0,175.5,,20.9,
192,192.0,174.6,,20.9,
193,193.0,174.0,,20.9,
194,194.0,174.5,,20.9,
195,195.0,174.5,,20.9,
196,196.0,175.0,inner_processor_check,20.9,
197,197.0,175.5,,20.9,
198,198.0,176.0,inner_processor_check,20.9,
199,199.0,175.5,inner_processor_check,20.9,
200,200.0,175.5,,20.9,
201,201.0,175.5,,20.9,
202,202.0,174.6,,20.9,
203,203.0,174.0,,20.9,
204,204.0,174.5,,20.9,
205,205.0,174.5,,20.9,
206,206.0,175.0,inner_processor_check,20.9,
207,207.0,175.5,,20.9,
208,208.0,176.0,inner_processor_check,20.9,
209,209.0,175.5,,20.9,
210,210.0,175.5,,20.9,
211,211.0,175.0,,20.9,
212,212.0,174.5,,20.9,
213,213.0,174.0,,20.9,
214,214.0,174.5,,20.9,
215,215.0,174.5,,20.9,
216,216.0,174.5,,20.9,
217,217.0,175.5,,20.9,
218,218.0,176.0,inner_processor_check,20.9,
219,219.0,175.5,,20.9,
220,220.0,175.0,inner_processor_check,20.9,
221,221.0,175.5,,20.9,
222,222.0,174.5,,20.9,
223,223.0,174.0,,20.9,
224,224.0,174.5,,20.9,
225,225.0,174.5,,20.9,
226,226.0,175.0,inner_processor_check,20.9,
227,227.0,175.5,,20.9,
228,228.0,176.0,inner_processor_check,20.9,
229,229.0,175.5,,20.9,
230,230.0,175.5,,20.9,
231,231.0,175.5,,20.9,
232,232.0,174.0,,20.9,
233,233.0,174.0,,20.9,
234,234.0,174.5,,20.9,
235,235.0,174.5,,20.9,
236,236.0,178.8,,20.9,
237,237.0,175.5,,20.9,
238,238.0,176.0,inner_processor_check,20.9,
239,239.0,175.5,,20.9,
240,240.0,175.0,inner_processor_check,20.9,
241,241.0,175.0,,20.9,
242,242.0,174.0,,20.9,
243,243.0,174.0,,20.9,
244,244.0,174.5,,20.9,
245,245.0,174.5,,20.9,
246,246.0,175.0,inner_processor_check,20.9,
247,247.0,175.5,,20.9,
248,248.0,176.0,inner_processor_check,20.9,
249,249.0,175.5,,20.9,
250,250.0,175.0,inner_processor_check,20.9,
251,251.0,175.0,,20.9,
252,252.0,174.8,,20.9,
253,253.0,174.0,,20.9,
254,254.0,174.5,,20.9,
255,255.0,174.5,,20.9,
256,256.0,175.0,inner_processor_check,20.9,
257,257.0,176.8,,20.9,
258,258.0,176.0,inner_processor_check,20.9,
259,259.0,175.5,,20.9,
260,260.0,175.5,,20.9,
261,261.0,175.0,inner_processor_check,20.9,
262,262.0,174.5,,20.9,
263,263.0,174.0,,20.9,
264,264.0,174.5,,20.9,
265,265.0,174.5,,20.9,
266,266.0,175.0,inner_processor_check,20.9,
267,267.0,175.5,,20.9,
268,268.0,176.0,inner_processor_check,20.9,
269,269.0,175.5,,20.9,
270,270.0,175.0,inner_processor_check,20.9,
271,271.0,175.0,inner_processor_check,20.9,
272,272.0,174.8,,20.9,
273,273.0,174.0,,20.9,
274,274.0,174.5,,20.9,
275,275.0,174.5,,20.9,
276,276.0,174.5,,20.9,
277,277.0,108.0,,20.9,
278,278.0,152.7,,20.9,
279,279.0,164.4,,20.9,
280,280.0,169.8,,20.9,
281,281.0,171.0,,20.9,processor_sweep
282,282.0,171.6,,20.9,
283,283.0,173.1,processor_sweep,20.9,
284,284.0,174.0,,20.9,
285,285.0,174.0,,20.9,
286,286.0,173.7,,20.9,
287,287.0,173.1,,20.9,
288,288.0,173.1,,20.9,
289,289.0,174.6,,20.9,
290,290.0,174.6,,20.9,
291,291.0,174.6,,20.9,
292,292.0,174.3,,20.9,inner_processor_check
293,293.0,173.7,,20.9,
294,294.0,174.0,,20.9,inner_processor_check
295,295.0,174.6,,20.9,
296,296.0,175.2,,20.9,
297,297.0,174.9,,20.9,
298,298.0,174.6,,20.9,inner_processor_check
299,299.0,173.7,,20.9,
300,300.0,173.3,processor_sweep,20.9,
301,301.0,174.9,,20.9,
302,302.0,175.2,,20.9,
303,303.0,174.9,,20.9,
304,304.0,174.6,,20.9,
305,305.0,174.0,,20.9,
306,306.0,173.7,,20.9,
307,307.0,174.6,,20.9,
308,308.0,175.2,,20.9,
309,309.0,174.9,,20.9,
310,310.0,174.6,,20.9,
311,311.0,173.7,,20.9,
312,312.0,174.0,,20.9,
313,313.0,174.9,,20.9,
314,314.0,175.5,,20.9,inner_processor_check
315,315.0,175.2,,20.9,
316,316.0,174.6,,20.9,
317,317.0,174.0,,20.9,
318,318.0,174.0,,20.9,
319,319.0,174.9,,20.9,
320,320.0,175.5,,20.9,
321,321.0,175.2,,20.9,
322,322.0,174.6,,20.9,
323,323.0,173.7,,20.9,
324,324.0,174.0,,20.9,
325,325.0,174.6,,20.9,
326,326.0,175.5,,20.9,
327,327.0,175.2,,20.9,
328,328.0,174.6,,20.9,
329,329.0,174.0,,20.9,
330,330.0,174.3,,20.9,
331,331.0,175.2,,20.9,
332,332.0,175.5,,20.9,
333,333.0,175.2,,20.9,
334,334.0,174.6,,20.9,
335,335.0,173.7,,20.9,inner_processor_check
336,336.0,174.0,,20.9,
337,337.0,174.6,,20.9,
338,338.0,175.5,,20.9,
339,339.0,175.2,,20.9,
340,340.0,174.6,,20.9,
341,341.0,173.7,,20.9,
342,342.0,174.0,,20.9,
343,343.0,174.9,,20.9,inner_processor_check
344,344.0,175.5,,20.9,
345,345.0,175.2,,20.9,
346,346.0,174.6,,20.9,
347,347.0,173.7,,20.9,
348,348.0,174.0,,20.9,inner_processor_check
349,349.0,174.9,,20.9,
350,350.0,175.5,,20.9,
351,351.0,174.9,,20.9,
352,352.0,174.6,,20.9,inner_processor_check
353,353.0,173.7,,20.9,
354,354.0,174.0,,20.9,
355,355.0,174.9,,20.9,
356,356.0,175.8,,20.9,
357,357.0,175.3,processor_sweep,20.9,
358,358.0,174.6,,20.9,
359,359.0,173.7,,20.9,
360,360.0,174.3,,20.9,
361,361.0,174.9,,20.9,
362,362.0,175.5,,20.9,
363,363.0,175.2,inner_processor_check,20.9,
364,364.0,174.6,,20.9,
365,365.0,173.7,,20.9,
366,366.0,174.0,,20.9,
367,367.0,174.6,,20.9,
368,368.0,175.5,,20.9,
369,369.0,175.2,inner_processor_check,20.9,inner_processor_check
370,370.0,174.6,,20.9,
371,371.0,173.7,,20.9,inner_processor_check
372,372.0,174.0,,20.9,
373,373.0,174.9,,20.9,inner_processor_check
374,374.0,175.5,,20.9,
375,375.0,175.2,inner_processor_check,20.9,
376,376.0,174.6,,20.9,
377,377.0,173.7,,20.9,
378,378.0,173.7,,20.9,
379,379.0,174.3,,20.9,
380,380.0,175.5,,20.9,
381,381.0,178.4,,20.9,
382,382.0,174.6,,20.9,
383,383.0,173.7,,20.9,
384,384.0,174.0,,20.9,
385,385.0,174.9,,20.9,
386,386.0,175.5,,20.9,
387,387.0,175.2,,20.9,
388,388.0,174.6,,20.9,inner_processor_check
389,389.0,173.7,,20.9,
390,390.0,174.0,,20.9,
391,391.0,174.9,,20.9,
392,392.0,175.5,,20.9,
393,393.0,174.9,,20.9,
394,394.0,174.6,,20.9,
395,395.0,173.4,inner_processor_check,20.9,
396,396.0,173.4,inner_processor_check,20.9,
397,397.0,174.6,,20.9,
398,398.0,175.5,,20.9,
399,399.0,174.9,,20.9,
400,400.0,174.3,,20.9,
401,401.0,175.4,processor_sweep,20.9,
402,402.0,174.0,,20.9,
403,403.0,174.9,,20.9,
404,404.0,175.5,,20.9,processor_sweep
405,405.0,170.2,,20.9,inner_processor_check
406,406.0,174.3,,20.9,
407,407.0,173.4,inner_processor_check,20.9,
408,408.0,174.0,,20.9,inner_processor_check
409,409.0,174.6,,20.9,
410,410.0,175.5,,20.9,
411,411.0,175.2,,20.9,inner_processor_check
412,412.0,174.6,,20.9,
413,413.0,173.7,,20.9,
414,414.0,173.0,,20.9,
415,415.0,174.9,,20.9,
416,416.0,175.5,,20.9,
417,417.0,175.2,,20.9,
418,418.0,174.6,,20.9,
419,419.0,173.7,,20.9,
420,420.0,174.0,,20.9,
421,421.0,174.9,,20.9,
422,422.0,175.5,,20.9,
423,423.0,175.2,inner_processor_check,20.9,
424,424.0,174.8,,20.9,
425,425.0,173.4,inner_processor_check,20.9,
426,426.0,177.7,,20.9,
427,427.0,174.9,,20.9,
428,428.0,175.5,,20.9,
429,429.0,174.9,,20.9,
430,430.0,174.6,,20.9,
431,431.0,173.4,,20.9,
432,432.0,173.7,,20.9,
433,433.0,174.6,,20.9,
434,434.0,175.2,,20.9,
435,435.0,174.9,,20.9,
436,436.0,174.3,,20.9,
437,437.0,173.4,inner_processor_check,20.9,
438,438.0,174.0,,20.9,inner_processor_check
439,439.0,174.9,,20.9,
440,440.0,175.5,,20.9,
441,441.0,175.2,processor_sweep,20.9,
442,442.0,174.3,,20.9,
443,443.0,173.7,,20.9,
444,444.0,174.0,,20.9,
445,445.0,174.6,,20.9,
446,446.0,175.2,,20.9,
447,447.0,174.9,,20.9,
448,448.0,174.0,,20.9,
449,449.0,173.4,inner_processor_check,20.9,
450,450.0,173.7,,20.9,inner_processor_check
451,451.0,174.6,,20.9,
452,452.0,175.5,,20.9,
453,453.0,175.2,,20.9,
454,454.0,174.0,,20.9,
455,455.0,173.4,inner_processor_check,20.9,
456,456.0,173.7,,20.9,
457,457.0,174.6,,20.9,
458,458.0,175.2,,20.9,
459,459.0,174.9,,20.9,
460,460.0,174.0,,20.9,
461,461.0,173.1,,20.9,
462,462.0,173.1,inner_processor_check,20.9,
463,463.0,174.3,,20.9,
464,464.0,175.2,inner_processor_check,20.9,
465,465.0,174.9,,20.9,
466,466.0,174.0,,20.9,
467,467.0,173.4,inner_processor_check,20.9,
468,468.0,173.7,,20.9,
469,469.0,174.6,,20.9,
470,470.0,175.2,,20.9,
471,471.0,174.9,,20.9,
472,472.0,174.0,,20.9,
473,473.0,173.1,,20.9,
474,474.0,173.7,,20.9,
475,475.0,174.6,,20.9,inner_processor_check
476,476.0,175.2,inner_processor_check,20.9,
477,477.0,174.9,,20.9,
478,478.0,174.0,,20.9,inner_processor_check
479,479.0,173.4,inner_processor_check,20.9,inner_processor_check
480,480.0,173.7,,20.9,
481,481.0,174.6,,20.9,inner_processor_check
482,482.0,175.2,inner_processor_check,20.9,
483,483.0,174.9,,20.9,
484,484.0,174.0,,20.9,
485,485.0,173.1,processor_sweep,20.9,
486,486.0,173.4,inner_processor_check,20.9,
487,487.0,174.0,,20.9,
488,488.0,174.9,,20.9,
489,489.0,174.6,,20.9,
490,490.0,174.0,,20.9,inner_processor_check
491,491.0,173.1,processor_sweep,20.9,
492,492.0,173.1,,20.9,
493,493.0,174.3,,20.9,
494,494.0,175.2,,20.9,
495,495.0,174.9,,20.9,
496,496.0,174.0,,20.9,
497,497.0,173.1,inner_processor_check,20.9,
498,498.0,173.4,inner_processor_check,20.9,
499,499.0,174.3,,20.9,
500,500.0,174.9,,20.9,
501,501.0,174.6,,20.9,
502,502.0,174.0,,20.9,inner_processor_check
503,503.0,173.1,,20.9,inner_processor_check
504,504.0,173.4,processor_sweep,20.9,inner_processor_check
505,505.0,174.6,,20.9,
506,506.0,175.2,,20.9,
507,507.0,174.9,,20.9,
508,508.0,174.0,,20.9,
509,509.0,173.1,,20.9,
510,510.0,173.7,,20.9,
511,511.0,174.6,,20.9,
512,512.0,175.2,,20.9,inner_processor_check
513,513.0,174.6,,20.9,
514,514.0,173.3,inner_processor_check,20.9,
515,515.0,173.1,,20.9,inner_processor_check
516,516.0,173.1,inner_processor_check,20.9,
517,517.0,174.0,,20.9,
518,518.0,175.2,,20.9,
519,519.0,174.9,,20.9,
520,520.0,174.0,,20.9,
521,521.0,175.1,inner_processor_check,20.9,
522,522.0,173.4,inner_processor_check,20.9,
523,523.0,174.3,,20.9,
524,524.0,174.9,,20.9,
525,525.0,174.6,,20.9,
526,526.0,177.7,,20.9,
527,527.0,173.1,,20.9,
528,528.0,173.4,inner_processor_check,20.9,inner_processor_check
529,529.0,174.3,,20.9,
530,530.0,174.9,,20.9,
531,531.0,174.6,,20.9,
532,532.0,174.0,,20.9,
533,533.0,173.1,,20.9,
534,534.0,173.4,inner_processor_check,20.9,
535,535.0,174.3,,20.9,
536,536.0,174.9,,20.9,
537,537.0,174.0,,20.9,
538,538.0,173.3,processor_sweep,20.9,
539,539.0,173.1,,20.9,inner_processor_check
540,540.0,173.4,inner_processor_check,20.9,
541,541.0,174.0,,20.9,
542,542.0,174.9,,20.9,
543,543.0,174.6,,20.9,
544,544.0,173.7,,20.9,
545,545.0,173.1,,20.9,
546,546.0,173.4,inner_processor_check,21.0,
547,547.0,174.3,,20.9,
548,548.0,174.9,,20.9,
549,549.0,174.6,,20.9,
550,550.0,173.2,processor_sweep,20.9,
551,551.0,172.8,processor_sweep,20.9,
552,552.0,173.1,inner_processor_check,20.9,
553,553.0,174.0,,20.9,
554,554.0,174.9,,20.9,
555,555.0,174.6,,20.9,
556,556.0,173.7,,20.9,inner_processor_check
557,557.0,172.8,,20.9,
558,558.0,173.1,,20.9,
559,559.0,174.3,,20.9,
560,560.0,174.9,,20.9,
561,561.0,174.6,,20.9,
562,562.0,173.2,processor_sweep,20.9,
563,563.0,172.8,processor_sweep,20.9,inner_processor_check
564,564.0,173.4,inner_processor_check,21.0,
565,565.0,174.0,,20.9,
566,566.0,174.9,,20.9,
567,567.0,174.6,,20.9,
568,568.0,173.7,,20.9,
569,569.0,173.8,,20.9,
570,570.0,173.1,,20.9,
571,571.0,174.0,,20.9,
572,572.0,174.9,,20.9,
573,573.0,174.6,,20.9,inner_processor_check
574,574.0,173.7,,20.9,
575,575.0,172.8,,20.9,
576,576.0,173.1,,20.9,
577,577.0,174.0,,20.9,
578,578.0,174.9,,20.9,
579,579.0,174.3,,20.9,
580,580.0,173.4,inner_processor_check,21.0,
581,581.0,172.8,,20.9,inner_processor_check
582,582.0,172.8,,21.0,
583,583.0,174.0,,21.0,
584,584.0,174.6,,21.0,
585,585.0,174.3,,21.0,
586,586.0,173.4,processor_sweep,21.0,
587,587.0,172.8,,20.9,
588,588.0,173.1,,20.9,
589,589.0,174.0,,20.9,inner_processor_check
590,590.0,174.6,,20.9,
591,591.0,174.3,,20.9,
592,592.0,173.4,inner_processor_check,20.9,
593,593.0,172.5,,20.9,inner_processor_check
594,594.0,172.8,,21.0,
595,595.0,173.0,processor_sweep,21.0,
596,596.0,174.6,,21.0,
597,597.0,174.0,,21.0,
598,598.0,173.4,inner_processor_check,21.0,
599,599.0,172.5,,21.0,
600,600.0,172.8,,21.0,
601,601.0,174.0,,21.0,
602,602.0,174.6,,21.0,
603,603.0,174.3,,21.0,
604,604.0,173.1,,21.0,
605,605.0,172.5,inner_processor_check,21.0,
606,606.0,172.8,,21.0,
607,607.0,173.7,,21.0,
608,608.0,174.6,,21.0,
609,609.0,174.3,,21.0,
610,610.0,173.4,inner_processor_check,21.0,
611,611.0,172.5,,21.0,
612,612.0,173.1,,20.9,inner_processor_check
613,613.0,174.0,,20.9,
614,614.0,174.6,,21.0,
615,615.0,174.3,inner_processor_check,21.0,inner_processor_check
616,616.0,173.4,inner_processor_check,21.0,
617,617.0,172.5,,21.0,
618,618.0,173.1,,21.0,
619,619.0,174.0,,21.0,inner_processor_check
620,620.0,174.6,,21.0,
621,621.0,174.3,,21.0,
622,622.0,173.4,inner_processor_check,21.0,
623,623.0,172.5,,21.0,
624,624.0,173.1,,21.0,
625,625.0,174.0,,21.0,
626,626.0,174.6,,21.0,
627,627.0,174.3,,21.0,
628,628.0,173.4,inner_processor_check,21.0,
629,629.0,172.5,,21.0,
630,630.0,173.1,,21.0,
631,631.0,174.0,,21.0,
632,632.0,174.6,,21.0,
633,633.0,174.3,,21.0,
634,634.0,173.1,,21.0,
635,635.0,172.5,,21.0,
636,636.0,172.8,,21.0,
637,637.0,173.7,,21.0,
638,638.0,174.6,,21.0,inner_processor_check
639,639.0,174.3,,21.0,
640,640.0,173.4,inner_processor_check,21.0,
641,641.0,172.5,inner_processor_check,21.0,
642,642.0,173.1,,21.0,inner_processor_check
643,643.0,173.7,,21.0,
644,644.0,174.6,,21.0,
645,645.0,174.3,,21.0,
646,646.0,173.1,inner_processor_check,21.0,
647,647.0,172.5,,21.0,
648,648.0,172.8,,21.0,
649,649.0,173.7,,21.0,
650,650.0,174.6,,21.0,
651,651.0,174.3,,21.0,
652,652.0,173.4,inner_processor_check,21.0,
653,653.0,172.5,,21.0,
654,654.0,172.8,,21.0,
655,655.0,173.7,,21.0,
656,656.0,174.3,,21.0,
657,657.0,174.0,,21.0,
658,658.0,173.1,,21.0,
659,659.0,172.5,,21.0,
660,660.0,172.8,,21.0,
661,661.0,173.7,,21.0,
662,662.0,174.6,,21.0,
663,663.0,174.0,,21.0,
664,664.0,173.1,,21.0,
665,665.0,172.5,,21.0,
666,666.0,172.8,,21.0,
667,667.0,173.7,,21.0,processor_sweep
668,668.0,174.6,,21.0,
669,669.0,174.3,,21.0,inner_processor_check
670,670.0,173.4,inner_processor_check,21.0,
671,671.0,172.5,,21.0,
672,672.0,172.8,,21.0,
673,673.0,173.7,,21.0,
674,674.0,174.6,,21.0,
675,675.0,174.0,,21.0,
676,676.0,173.1,,21.0,inner_processor_check
677,677.0,172.5,,21.0,inner_processor_check
678,678.0,172.5,,21.0,
679,679.0,173.7,,21.0,
680,680.0,174.6,,21.0,
681,681.0,174.3,,21.0,inner_processor_check
682,682.0,173.4,inner_processor_check,21.0,inner_processor_check
683,683.0,172.5,,21.0,
684,684.0,172.8,,21.0,
685,685.0,173.7,,21.0,inner_processor_check
686,686.0,174.3,,21.0,
687,687.0,174.0,,21.0,
688,688.0,173.1,,21.0,
689,689.0,172.2,,21.0,
690,690.0,172.5,,21.0,
691,691.0,173.4,inner_processor_check,21.0,
692,692.0,174.3,,21.0,
693,693.0,174.0,,21.0,
694,694.0,173.1,,21.0,
695,695.0,172.5,,21.0,
696,696.0,172.8,,21.0,
697,697.0,173.7,,21.0,
698,698.0,174.3,,21.0,
699,699.0,174.0,,21.0,
700,700.0,173.1,,21.0,
701,701.0,172.2,,21.0,
702,702.0,172.8,,21.0,
703,703.0,173.7,,21.0,
704,704.0,174.3,,21.0,
705,705.0,174.0,,21.0,
706,706.0,173.1,,21.0,
707,707.0,172.2,,21.0,
708,708.0,172.5,,21.0,
709,709.0,177.7,,21.0,inner_processor_check
710,710.0,174.3,,21.0,
711,711.0,174.0,,21.0,
712,712.0,173.1,,21.0,
713,713.0,172.2,,21.0,
714,714.0,172.5,,21.0,inner_processor_check
715,715.0,173.4,inner_processor_check,21.0,
