##TITLE=0001
##JCAMP-DX=4.24
##DATATYPE=INFRARED SPECTRUM
##$NOTE=15.05.2024 11:47:26 4 ^0 x16 v:1 [Приставка: без приставки]
##$PAR1=2045
##$PAR2=2351
##$TIME1=44361
##$TIME2=44546
##$ITAB=-1,-1
##$NAK=16
##$RAZR=4
##$APO=1
##$REF=7901
##$DATIM=2122676975
##DATE=2024/05/15
##TIME=11:47
##XUNITS=1/CM
##YUNITS=TRANSMITTANCE
##XFACTOR=1
##YFACTOR=0.0241723
##FIRSTX=0
##LASTX=15801.451535575
##FIRSTY=43644.6599533425
##MAXX=15801.451535575
##MINX=0
##MAXY=1.29774e+007
##MINY=3081.01
##NPOINTS=8192
##XYDATA=(X++(Y..Y))
0 1805561 3396754 8643807 5461947 1500307 1083200 1172145 941893
15.433 955270 861502 959392 784729 709554 653881 873721 744995
30.866 742148 883171 810171 712514 774371 681151 649361 655691
46.299 469675 490373 502323 431605 502879 611308 617341 596789
61.732 536330 451915 512273 557424 518928 543851 552258 399790
77.1649 474356 524093 466420 499132 556503 574147 597581 560446
92.5979 514355 566912 540424 431365 480779 517111 498408 530285
108.031 512453 465679 484846 411777 395005 480307 545418 480832
123.464 483228 446379 478502 607082 533789 428991 491103 513617
138.897 491486 531058 480487 404282 476370 510137 518283 492178
154.33 395106 397918 516550 535562 513530 519653 486724 519406
169.763 497505 400752 429418 491851 503997 490974 478822 450437
185.196 495557 485927 406203 373225 472452 484987 505103 466941
200.629 391391 390567 455056 489948 563773 526365 478336 452944
216.062 463624 457910 408123 361770 374738 389940 452448 488821
231.495 504856 473786 441739 504347 524602 552486 598008 619350
246.928 629039 588362 546094 537023 532260 532156 526589 534374
262.361 515885 444601 418354 481669 590987 659850 607185 498048
277.794 463164 461895 468057 528924 580901 567773 470958 483221
293.227 475177 498103 476319 545518 640067 630685 606011 566356
308.66 482274 454747 472378 550741 636547 620432 503509 483706
324.093 498775 540061 494055 462376 425653 450008 478520 486096
339.526 517297 554269 575582 652546 690113 653946 647004 628107
354.959 583602 594164 571448 538198 521086 541388 548713 588414
370.392 605498 600802 592268 532590 549585 565696 533849 603772
385.825 668429 659165 601076 585479 601749 636536 648917 641857
401.258 722306 814535 764296 723902 703724 620582 532580 600004
416.691 666428 687961 688346 728054 815462 818997 713053 690174
432.124 671055 563819 561005 662022 793165 828547 783043 731205
447.557 720258 744841 769418 854462 921458 899290 876676 860627
462.99 982910 1215624 1387082 1501852 1654342 1848955 2056457 2248440
478.423 2404105 2568309 2775407 3025266 3362475 3785391 4221195 4689527
493.856 5276272 5973099 6683060 7378939 8214054 9337549 10662778 12033808
509.289 13431504 14857806 16186375 17217360 18070167 19322191 21076165 22546597
524.722 23512443 24843325 26797777 28584726 29868464 30997536 32085955 33062906
540.155 33999414 34892218 35686383 36451018 37224559 37959420 38643003 39233830
555.588 39637249 39869902 40078702 40372829 40699692 40956426 41324044 42147795
571.021 43255428 44131169 44921962 46228699 48052939 50004925 52074305 54398883
586.454 56701218 58427374 59571085 61017517 63288473 65574560 67071539 68127742
601.887 69216481 70115370 70484427 70392257 70268088 70346083 70229618 69792573
617.32 70026237 71696426 73977471 75822402 77583689 79846514 82007629 83331345
632.753 84006599 84562514 85410356 86531164 87430632 88188838 89018547 89194608
648.186 89051290 90015128 91519545 93121297 96117277 99102846 101138466 105391018
663.619 106909963 94687815 78119129 80206301 98662538 111062671 112627313 113604506
679.052 115492468 115940584 117859987 121635959 124523088 127308442 131362023 135358277
694.485 138728833 142298691 146099665 149722076 152902057 155464235 157833482 160361438
709.917 162532885 164386141 166747725 168812458 168954583 168634866 170852712 174914293
725.35 177802661 179217522 180714043 182490710 184161921 185899151 187599224 189004329
740.783 190337935 191860588 193570395 195339360 196906438 198116654 199115771 200140146
756.216 201380564 202889638 204541911 206318916 208315164 210376777 212261397 214025149
771.649 215839463 217702864 219528067 221278955 222962199 224575235 226143885 227805926
787.082 229673932 231688277 233837588 236247225 238851755 241391108 243754418 245907537
802.515 247623840 248577240 248630818 248162023 248108929 249235783 251402444 253975142
817.948 256619637 259291071 261901596 264396868 266889796 269470395 272026569 274433168
833.381 276727029 278764495 279998200 280160603 279851825 279835620 280147825 280458939
848.814 280864238 281817320 283589070 286074446 288963028 291960415 294867491 297576398
864.247 300075555 302286086 304002952 305431953 307399654 310401450 314051757 317910033
879.68 321936660 325961416 329628704 332816423 335590674 338034971 340260018 342338815
895.113 344315741 346266829 348227106 350215127 352270688 354326261 356266297 358107231
910.546 359913944 361716377 363565541 365469718 367364754 369203763 370954460 372633599
925.979 374348342 376096506 377718118 379197878 380685208 382223776 383817066 385577475
941.412 387525189 389506822 391444417 393402006 395415377 397431904 399377733 401259083
956.845 403101309 404651150 405540986 406049913 407060985 408984187 411431398 413956486
972.278 416403275 418717400 420915782 423041826 425072563 427025265 428928011 430649825
987.711 432075691 433356740 434744179 436279534 437703291 438640749 439019426 439245970
1003.14 439751742 440545264 441426444 442321600 443203072 444004309 444702449 445262728
1018.58 445635064 445905741 446180118 446405899 446583156 446847008 447202455 447590855
1034.01 448121129 448839994 449592865 450353926 451250657 452243725 453239498 454362599
1049.44 455756603 457347175 458995658 460643347 462247926 463771523 465202976 466487044
1064.88 467539329 468382751 469106837 469683116 470049017 470357283 470860782 471577922
1080.31 472325398 473008110 473688458 474449410 475278125 476081833 476849702 477690811
1095.74 478623418 479534775 480392471 481230012 481974846 482522790 482849447 482966488
1111.18 482986763 483160697 483608484 484200835 484858392 485670907 486657773 487745648
1126.61 488963134 490363017 491803407 493024616 493954931 494787372 495640991 496351002
1142.04 496796478 497081412 497209331 497090591 496906587 496930248 497162039 497524355
1157.47 498074270 498836209 499730881 500744132 502046192 503776180 505592488 506870835
1172.91 507646596 508680069 510309192 512087278 513618310 514791890 515410427 515526666
1188.34 515672715 516041877 516116582 515442052 514144340 512746268 511745997 511205440
1203.77 511008850 511256698 511715458 511902568 512178944 513050122 513925301 514415134
1219.21 515044717 515524014 514982129 513899084 513242447 512776061 511932973 510905456
1234.64 510118970 509650714 509324714 509033475 508944141 509373110 510388376 511417986
1250.07 511740799 511690144 512090608 512460052 511982166 511626053 512615979 513939780
1265.51 513534659 510891723 507888426 507688139 511728435 517608893 521846400 524044625
1280.94 525951336 527652113 527772505 526867028 527435074 530113721 532650831 533472177
1296.37 533618677 534458137 535759562 536462737 536370935 536549885 536870911 534998459
1311.8 530905210 527585926 524600103 520096110 518412990 523102263 528836677 531298648
1327.24 532681585 533355857 532694144 531511406 524004227 505819560 491463425 498359165
1342.67 519003312 531918181 531398154 528687107 529670962 528236142 523739620 522574750
1358.1 516569909 494527441 474787050 480685042 499579884 508423166 504139336 488462275
1373.54 470607082 472040507 490713709 503948210 509397359 507314054 486121754 465276052
1388.97 473249601 484628991 465534026 436212542 427947917 441786644 463841919 475808259
1404.4 474934498 481381890 495298521 498511114 496855124 489376699 452481894 406599516
1419.83 402138330 434829105 465864922 479966533 477008799 468486951 468031180 456227217
1435.27 422054325 411515919 449922819 489568534 493271114 476850324 458785551 450197168
1450.7 458573879 450866751 388678331 321606380 337478513 413537508 448746959 435519293
1466.13 445074353 467817782 437055691 374670148 361348518 406736846 456338604 479815385
1481.57 487654536 487331573 462029908 409595806 376330624 396116533 424328769 406762599
1497 373981726 387089404 427488687 416339386 335297489 268010612 289944760 362429047
1512.43 398578042 385046719 359109145 331388856 307150337 307469885 330211471 360463151
1527.87 394891116 410587919 390877231 373482938 371854766 334593859 267196086 249981147
1543.3 300947585 365629594 409078534 422992056 413425137 396100090 355769769 282293052
1558.73 240776118 290334276 383260456 434034599 423041666 397725597 405033712 423899333
1574.16 405594211 379372063 407556457 464603828 489049490 487301657 488820369 488590584
1589.6 480723651 472977648 466457831 461871039 462545309 461709399 454231609 449740561
1605.03 450009234 442393615 434647590 441623369 434522805 390468095 359758263 378441774
1620.46 397690035 386844884 380761422 393996050 412323775 427687057 412689778 356820570
1635.9 319852101 350007605 409653735 432051576 392632925 333290539 316350169 322497934
1651.33 287086087 250151951 300592518 396061530 426613977 397996959 390077128 404868078
1666.76 387605543 346029352 333615094 346425453 348153989 354261283 376419469 363394564
1682.2 302100315 265942143 295687590 348437107 378389253 374476061 340441958 292320083
1697.63 254036006 243663982 264500713 297550647 320215867 335843549 354301418 358866134
1713.06 328940048 279504120 252762302 273799847 321588214 353682645 357938892 353098751
1728.49 341430377 306819715 263072403 250803373 275237779 297064700 296021474 293276860
1743.93 299806696 295330674 274098766 263292522 278784610 301895846 311798849 309095384
1759.36 303368519 302099932 308749075 315990519 308794275 283389225 257734052 256004631
1774.79 279141653 301260990 305178082 300748115 299378139 300819453 302936205 296556133
1790.23 273684251 254135088 261193202 278143122 277697524 267908804 268933372 278622988
1805.66 283465045 277607474 266976775 262469229 263551547 259658733 251239827 245831364
1821.09 239563240 227823302 216858823 208976058 201874514 202271135 212084100 217759400
1836.53 214546634 211460238 205538871 189372463 175912957 179385006 190631041 195981622
1851.96 196057762 195033062 192859667 189640967 186624462 184639219 181393353 171923796
1867.39 159082653 154970817 162708394 170876786 172018677 170029321 168163364 165542506
1882.82 162944587 160600045 156112981 150664826 148634181 149365794 148863812 147503907
1898.26 147376211 147015812 145100960 142906915 140301182 136419635 133729189 134015420
1913.69 133411880 128759865 123778031 122159846 121741429 120701585 120682316 121290876
1929.12 120267643 118095723 116246319 114653031 112911647 110015280 105385179 101703231
1944.56 101519039 102842007 102883321 101794122 100360420 98696172 97081083 95548898
1959.99 94125182 93095319 91876939 89977459 88669048 88847761 89210801 88739537
1975.42 88251871 88487550 89179379 90002276 90779169 91229805 91073987 90191964
1990.86 89247569 89558952 91105757 92169783 91965795 91320468 90627062 89671708
2006.29 88773279 88337010 88277095 88188651 87511200 86356784 85757675 86056644
2021.72 86475393 86655652 86831436 86952787 86932310 86906745 86995255 87374034
2037.15 88051223 88697236 89304879 90174232 91168244 92155937 93599397 95660144
2052.59 97678832 99150678 100275149 101312453 102112387 102502510 102839293 103733074
2068.02 105133717 106343181 107149165 108082172 109397176 110754570 111943833 113094558
2083.45 114223559 115117423 115615118 115739111 115528622 114980842 114345581 114123909
2098.89 114483608 115091571 115618559 115950192 116082246 116199667 116556041 117102440
2114.32 117496255 117450170 116923235 116023788 114806839 113238806 111294552 108963581
2129.75 106299423 103505196 100780687 98211664 95925076 94040644 92454277 90994170
2145.19 89662194 88483461 87347991 86128992 84725332 83080607 81495089 80633848
2160.62 80772283 81447850 82224792 83128039 84063144 84655375 84847259 84952025
2176.05 85119141 85242631 85285871 85367900 85598289 86004429 86575427 87256165
2191.48 87933378 88508601 88972743 89397113 89814566 90131303 90332948 90655721
2206.92 91244548 91903400 92451086 92940834 93443529 93956365 94420571 94752433
2222.35 95074826 95695729 96657449 97629971 98332424 98847092 99466698 100258398
2237.78 101020446 101769811 102727479 103751589 104511269 105091789 105745150 106429363
2253.22 107115445 108029208 109226800 110403520 111342294 112178428 113158183 114472373
2268.65 116225794 118304993 120544259 123021150 125800854 128810750 132239030 136207952
2284.08 140162875 143569891 146545359 149066738 150731114 151602921 152099361 152210912
2299.52 151718840 150660036 148931650 145958133 141415222 136080862 131326472 127741435
2314.95 124517048 120113854 114091711 108514246 105837419 105082552 102699119 97604374
2330.38 92625314 90185091 88924738 86563930 83873235 82270130 81604957 85305802
2345.81 98534695 114326804 115718157 98842352 77843293 63835753 55840050 51272596
2361.25 50277628 52026546 55486299 61068049 69201365 79987104 93622003 109866583
2376.68 127993336 147028401 165626191 182058001 194412796 201554468 204182320 204079605
2392.11 202669353 200772481 198675247 196236141 193521077 190845802 188278623 185852174
2407.55 183822182 182268662 180899337 179394904 177754957 176209346 174818064 173441954
2422.98 172053899 170717086 169457674 168337896 167367886 166429051 165467416 164573656
2438.41 163875900 163405833 162992893 162489907 162071654 161933787 161909230 161785102
2453.85 161690834 161825301 162056517 162068695 161748285 161224165 160661838 160151637
2469.28 159677625 159166076 158602823 158005675 157351621 156663176 156033682 155514031
2484.71 155073557 154644072 154199591 153783829 153389503 152958198 152548784 152250164
2500.14 151970077 151560494 151063895 150673419 150472560 150319267 150069206 149761069
2515.58 149469509 149204352 148975513 148759570 148521925 148317062 148208006 148192302
2531.01 148245440 148301723 148282852 148158862 147939097 147763754 147841847 148125216
2546.44 148404812 148667368 148940270 149132951 149289145 149540350 149852811 150173684
2561.88 150562651 151043181 151618039 152343745 153159213 153879033 154531551 155355191
2577.31 156343591 157292077 158286501 159508594 160792457 161994844 163303524 164805709
2592.74 166405526 168150109 170033533 171828681 173524750 175461541 177794312 180235201
2608.18 182533570 184889464 187587470 190546305 193583693 196711660 199945597 203303131
2623.61 206930332 210817728 214750245 218733199 222965248 227479885 232249381 237296431
2639.04 242459762 247520139 252576719 257867180 263388402 268982051 274537568 279987803
2654.47 285257558 290162842 294405007 297802669 300310115 301784295 302146181 301722807
2669.91 301034293 300340381 299630893 298888783 298124311 297235167 296106889 294837127
2685.34 293595051 292379728 291167025 290055174 289102322 288219470 287230479 286042430
2700.77 284838977 283857148 282977145 281929439 280728614 279543453 278416857 277307847
2716.21 276203934 275135844 274093166 272978316 271782511 270619515 269451147 268153922
2731.64 266868659 265781522 264693801 263343968 261904257 260648546 259472162 258187873
2747.07 256874961 255615174 254328505 252969733 251538560 250053980 248662636 247491397
2762.51 246486134 245545902 244557038 243414410 242219600 241119600 240001486 238739186
2777.94 237433507 236159682 234844160 233410057 231836061 230167978 228434432 226581777
2793.37 224726638 223152819 221781551 220232897 218552252 217162772 216177061 215395207
2808.8 214684933 213922444 212980814 211964095 211034279 210110708 209129933 208286225
2824.24 207663022 207034020 206289091 205584627 204921194 204096908 203073698 201842033
2839.67 200159193 197912356 195273554 192324729 189323353 187115576 186259326 186215999
2855.1 186227191 186175147 186059405 185636507 184902178 184111204 183319390 182495293
2870.54 181764364 181077838 180143990 178987025 177946677 177055354 176081791 175003938
2885.97 173900390 172764990 171680211 170725711 169768036 168631559 167244198 165635390
2901.4 164037730 162693936 161454137 159972990 158187346 156192670 153943259 151475241
2916.83 149168061 147467752 146464496 145924145 145689501 145815217 146192664 146402985
2932.27 146249182 146002632 145860666 145755360 145761084 145936635 145918012 145369860
2947.7 144493660 143630134 142795271 141832361 140727858 139701552 138984269 138510098
2963.13 138013935 137379505 136695624 136098408 135637244 135193290 134636986 134058282
2978.57 133573073 133016563 132165805 131139829 130309771 129873198 129655965 129409110
2994 129258048 129547880 130196609 130699429 130852274 130965868 131363986 132013018
3009.43 132563613 132668246 132289686 131578600 130654702 129731693 129082511 128796874
3024.87 128847466 129083563 129117458 128729194 128038136 126963071 125357321 123667715
3040.3 122409682 121339568 120040761 118707229 117696536 116935984 116167252 115323579
3055.73 114510540 113879387 113451096 112981124 112302945 111691664 111399549 111185234
3071.16 110811961 110424080 110081326 109621828 109107028 108780992 108612518 108314526
3086.6 107819730 107383606 107041488 106450055 105626174 105109841 105036225 104971488
3102.03 104787863 104745807 104867269 104948268 104874893 104647395 104433413 104473579
3117.46 104688044 104690327 104313121 103883962 103908977 104442800 104907213 104893584
3132.9 104841719 105328231 106132397 106645135 106729815 106706754 106880353 107352696
3148.33 108079233 108934099 109727928 110306331 110747479 111333037 112242871 113411619
3163.76 114691732 115996919 117260564 118444583 119649319 120942381 122134095 123137636
3179.2 124183780 125211243 125827817 126149548 126603791 127061819 127196796 127082568
3194.63 126836615 126520419 126410276 126647568 127005130 127266538 127339898 127160710
3210.06 126838490 126616337 126578590 126508229 126029070 125071000 124062095 123280566
3225.49 122470511 121496128 120634120 119972596 119298914 118532674 117712869 116904048
3240.93 116298850 115978745 115824986 115871567 116091958 116068953 115708594 115592880
3256.36 115986948 116509917 116982919 117567866 118310258 119212445 120240784 121147321
3271.79 121830936 122567132 123571751 124810762 126225497 127722266 129125303 130352356
3287.23 131465256 132586401 133845412 135212042 136420870 137338135 138274596 139607685
3302.66 141239437 142754975 143997791 145226540 146784444 148774367 151026491 153304510
3318.09 155485024 157524541 159341228 160807159 161866331 162589584 162955832 162686585
3333.53 161636779 160100974 158183160 155286084 150948380 145767348 140939827 137295982
3348.96 134933677 133348102 131971717 130724249 129749977 128866961 127731047 126234382
3364.39 124561864 123116797 122192221 121648775 121314914 121443012 122354754 123986155
3379.82 125920025 127760396 129742303 132595601 136304200 139912423 142983165 146022689
3395.26 149395572 152964633 156412876 159183074 160788264 161378370 161331674 160613316
3410.69 159043138 156605899 153099614 148042690 141525922 134966693 130130351 127237848
3426.12 125047189 122707816 120260839 117826374 115594513 113858358 112409525 110851984
3441.56 109213482 107383495 105153393 103256355 102547960 102303285 101280778 99667296
3456.99 98229221 96895492 95545705 94636415 94275105 94094333 93958343 93702177
3472.42 93099770 92590172 92495950 91961881 90586417 89689126 90042437 90521223
3487.86 90472438 90700359 91253347 91206552 90772494 90647271 90051833 88443978
3503.29 87436212 88084872 88915414 89020410 89597991 90933866 91737447 91677872
3518.72 91148767 89819678 87878065 86516108 86256048 86980670 88723623 90655329
3534.15 91332312 90983832 91153087 91624120 90243057 86786337 84489775 85380295
3549.59 86933991 86936867 87427301 89536271 90409287 88892625 86773262 83150864
3565.02 76767551 72642928 76205886 83744994 88012813 88462461 88238836 87829979
3580.45 87116646 85931306 81711142 75141867 73055830 77184680 80256053 79185996
3595.89 78532075 79635707 80291356 81241009 82312670 80217628 75633196 72968979
3611.32 73005019 73533077 73350111 71798302 70382400 73357259 79452258 79469746
3626.75 70528445 63335546 66773121 75899410 82491502 86047615 88543902 89118409
3642.19 87318207 82656780 72888731 61660718 59909374 69570236 78681706 81229142
3657.62 84097867 89937962 93755681 94449751 91869457 83373366 73566815 69572114
3673.05 67754500 64594640 67427329 78600186 88909268 92949842 91209979 83045268
3688.48 73296009 72210311 80681984 89976732 94782999 94911161 91598092 89061535
3703.92 90772875 92599209 88035455 79415724 76674531 84100448 93950587 96947928
3719.35 93641548 89657204 86988708 86113777 87828188 88811884 84023045 74663477
3734.78 68431143 72183251 83087401 88112841 80906518 72894522 73681829 75338784
3750.22 72857488 77091793 91252930 101709702 103129156 105304555 111447423 114568583
3765.65 112916158 110843298 111455497 116897630 125431453 129032504 124777418 120697751
3781.08 122541096 126579003 129109411 131653743 135454237 137558561 134378936 127533337
3796.52 120907148 113647712 106227985 105469679 111267544 115623589 120753142 131342673
3811.95 135914258 126233259 114636217 109846901 106678621 106770855 115896598 127149507
3827.38 131496862 130479167 127707342 122747879 115066704 107362638 105705446 112927969
3842.81 123928116 133813934 140768391 137540499 118538162 96808037 94231206 113300295
3858.25 133476929 137691486 130673167 125721671 125011637 122984960 119932414 122020483
3873.68 131299549 140746680 142148622 137329290 133501034 132213559 133289107 137890440
3889.11 141450989 140888070 143365586 149811157 148262766 136273568 125605202 123512380
3904.55 130304902 144636586 159312398 166535080 166698979 162192746 154717968 150720154
3919.98 153583941 156914354 157067933 158292907 160498142 159073239 156441392 158907372
3935.41 165585454 170016374 168775183 164499261 162231644 163038227 163642816 163572618
3950.85 165898996 170033368 172287221 172320399 171987020 171791737 172300626 173909349
3966.28 175076551 174785967 174107092 173739732 173597391 174158207 175426194 176384275
3981.71 176737971 177148415 177617862 177482952 176829223 176466728 176701699 177229607
3997.14 177839953 178391798 178664351 178600696 178244000 177732376 177505308 177841011
4012.58 178381731 178631725 178550636 178463706 178549881 178554809 178346451 178320719
4028.01 178630962 178905276 179063971 179243804 179291231 179279969 179419476 179274846
4043.44 178641092 178431444 179124127 179785042 179805258 179765794 179932951 179845848
4058.88 179602162 179759946 180160810 180316688 180349021 180475870 180509319 180447533
4074.31 180485995 180428988 180144671 180075592 180377333 180463743 180127511 180001774
4089.74 180412468 180893877 181079782 181089768 181064647 181023178 180941371 180718044
4105.18 180423303 180383152 180696220 181109191 181403158 181460023 181287151 181189488
4120.61 181369617 181574152 181665755 181876825 182127531 182014152 181632925 181504287
4136.04 181718355 181929908 182039846 182220924 182443799 182537553 182547324 182604416
4151.47 182661544 182626790 182522324 182430391 182441968 182566470 182687052 182747990
4166.91 182808393 182843820 182778465 182654285 182548611 182504903 182584759 182749707
4182.34 182821142 182743826 182659775 182660834 182715731 182773211 182755114 182621506
4197.77 182502211 182523708 182589074 182575342 182546797 182588426 182660392 182675138
4213.21 182564678 182357087 182206102 182199010 182249433 182273437 182283445 182323609
4228.64 182456222 182662497 182726905 182491486 182150243 181968236 181914568 181903691
4244.07 182002439 182089531 181913420 181660469 181690739 181815721 181681562 181450590
4259.5 181385351 181381301 181318363 181241460 181144437 181029980 180993035 181054490
4274.94 181133893 181144830 181014866 180771219 180565207 180470324 180406059 180326997
4290.37 180288325 180307271 180320900 180253968 180048517 179722325 179429197 179330413
4305.8 179408038 179510036 179512176 179350215 179023904 178674494 178506483 178516233
4321.24 178472039 178254206 177983687 177778545 177651937 177600895 177578125 177518240
4336.67 177458887 177433910 177334684 177053256 176636411 176253150 176042748 175919853
4352.1 175699320 175475519 175435508 175357832 174945612 174431250 174193528 174167654
4367.54 174112943 173979017 173803730 173644350 173507122 173237299 172834529 172604262
4382.97 172577892 172398204 172013247 171699311 171503033 171328467 171151909 170874008
4398.4 170505852 170270995 170127254 169820243 169454456 169243727 169036985 168706759
4413.83 168410246 168174419 167874783 167585398 167419221 167269182 167009811 166653872
4429.27 166246394 165840438 165485345 165145952 164775411 164423081 164157298 163948988
4444.7 163668869 163236102 162770866 162417104 162111515 161806059 161607765 161448110
4460.13 161110482 160661839 160324415 160063588 159707748 159236409 158773888 158435403
4475.57 158138341 157651971 156992503 156498388 156345163 156278538 155948126 155332240
4491 154734591 154370768 154122548 153830763 153538814 153237714 152776210 152208889
4506.43 151763579 151424612 151035338 150631165 150237209 149723633 149129055 148631771
4521.87 148193341 147704652 147258238 146939179 146653250 146307717 145932103 145588619
4537.3 145238258 144768415 144209182 143717073 143289280 142820878 142357268 141928396
4552.73 141418462 140879567 140524033 140282264 139887546 139341270 138803347 138240923
4568.16 137597430 137026449 136670330 136437412 136137841 135711423 135245943 134789070
4583.6 134287300 133779165 133389748 133066404 132619352 131993008 131284868 130635320
4599.03 130135380 129707440 129230569 128788285 128497681 128207687 127677564 126935551
4614.46 126255420 125825147 125548923 125225815 124817587 124385240 123879182 123220310
4629.9 122525982 122022181 121717539 121392865 120965633 120588247 120298943 119882581
4645.33 119213300 118482295 117912402 117437496 116894902 116356202 115968878 115656913
4660.76 115259876 114777331 114295733 113817434 113256542 112609356 112043123 111640305
4676.2 111232625 110734200 110304275 109985259 109602952 109080897 108493003 107905044
4691.63 107359068 106849800 106319867 105792371 105337380 104904607 104440080 104029507
4707.06 103670452 103184572 102571301 102062879 101699928 101281784 100744947 100196485
4722.49 99690448 99249882 98895813 98533400 98053919 97507923 96973976 96437235
4737.93 95921504 95489818 95104697 94713781 94324113 93855171 93219783 92572756
4753.36 92123228 91796223 91373322 90807046 90235643 89807356 89517547 89220846
4768.79 88830432 88369935 87842197 87260035 86727921 86317803 85993705 85705732
4784.23 85387925 84936904 84366367 83835125 83414663 83036763 82668520 82307096
4799.66 81924892 81565052 81258288 80899155 80458162 80037023 79603863 79091472
4815.09 78621707 78275178 77969542 77657768 77296648 76836731 76393376 76029741
4830.53 75551608 74926293 74463963 74286566 74130069 73814917 73439596 73059347
4845.96 72583712 72022264 71503660 71076256 70726743 70464835 70253689 70028523
4861.39 69762559 69401907 68920395 68451239 68118453 67818692 67392272 66896176
4876.82 66507824 66254572 66052071 65884396 65704506 65392143 64990148 64621615
4892.26 64218846 63744761 63353119 63045623 62678180 62304131 62016870 61730124
4907.69 61404948 61094015 60750041 60350543 60025167 59829615 59629911 59310330
4923.12 58919237 58589804 58388573 58217759 57912244 57491931 57146695 56902779
4938.56 56612558 56300088 56097231 55913181 55603895 55254762 54961152 54668116
4953.99 54379307 54139629 53872002 53562213 53343905 53190446 52921503 52574350
4969.42 52331166 52163246 51919479 51591825 51266408 50988864 50740044 50460068
4984.86 50156573 49936547 49823117 49693512 49470351 49180535 48828602 48424394
5000.29 48093302 47947693 47894714 47746792 47454238 47112903 46844289 46697247
5015.72 46571183 46318598 45966846 45676663 45501343 45340830 45101495 44830787
5031.15 44651563 44541315 44338382 44016584 43714840 43497726 43305136 43063139
5046.59 42745293 42443449 42312330 42300791 42147465 41804112 41525662 41370822
5062.02 41106632 40762849 40642330 40704076 40610266 40321216 40089820 40020811
5077.45 39943082 39650543 39234873 39007125 38973509 38814849 38463897 38154782
5092.89 37955031 37735449 37472060 37252043 37065436 36812292 36540593 36409976
5108.32 36339922 36102986 35769124 35541717 35338122 35038016 34779539 34635006
5123.75 34453870 34212819 34052143 33937762 33715950 33434942 33248915 33124710
5139.19 32933775 32688909 32475206 32292940 32119837 31982362 31839923 31570853
5154.62 31203697 30930257 30777290 30576254 30300051 30084169 29978267 29955361
5170.05 29995793 30006122 29862552 29573196 29234317 28883649 28538410 28289048
5185.48 28192933 28154776 28063491 27917969 27702740 27363551 27015176 26910571
5200.92 27023955 26882677 26174221 25385839 25276501 25818873 26288694 26225543
5216.35 25824526 25546271 25484683 25241529 24721292 24451697 24585022 24634035
5231.78 24534176 24637271 24767081 24533823 24063611 23602086 23127631 22710927
5247.22 22613511 22871877 23102367 22946779 22639085 22622456 22683799 22321367
5262.65 21738549 21505279 21687362 22055744 22468777 22674840 22480352 22091509
5278.08 21759151 21493107 21347357 21355467 21260838 20921505 20650169 20714126
5293.52 20941291 21011936 20776618 20355719 20046729 19896751 19640068 19339266
5308.95 19381999 19651853 19659875 19413275 19227560 19109466 18941671 18691654
5324.38 18343317 18038683 17916135 17829903 17655937 17344749 16731216 16102078
5339.81 16076435 16332279 16092525 15759912 16030474 16323823 16007156 15715503
5355.25 16078112 16617726 16675848 16341497 16098367 16109608 16152286 16106724
5370.68 16046845 15835979 15300877 14800200 14854229 15282253 15438785 15194047
5386.11 14998245 15019753 14888834 14425452 14011992 13992156 14202026 14325937
5401.55 14308399 14241856 14114422 13812872 13325103 12852536 12653634 12818467
5416.98 13192274 13465298 13454573 13255562 12949566 12503344 12117495 12053131
5432.41 12128143 12078997 12049459 12134158 12092528 11848516 11606057 11464905
5447.85 11411373 11471686 11599190 11647091 11557783 11407380 11250961 11082449
5463.28 10927573 10816508 10749608 10756986 10774379 10611044 10342770 10312745
5478.71 10528317 10664332 10623678 10496653 10264520 9951344 9708827 9641908
5494.14 9777457 10047390 10231642 10152635 9886027 9609558 9379690 9221049
5509.58 9241190 9414159 9481685 9330390 9141860 9001180 8808431 8613186
5525.01 8572188 8658360 8724774 8695331 8580141 8446970 8334221 8162522
5540.44 7879237 7607934 7490636 7531360 7671211 7810995 7803964 7634633
5555.88 7442200 7264677 7050604 6891365 6894206 6942431 6855651 6662428
5571.31 6559847 6626490 6670274 6521262 6339688 6313576 6303820 6157508
5586.74 6003901 5947269 5882099 5756082 5642152 5573037 5575481 5679260
5602.17 5739025 5582291 5356065 5292167 5274263 5114227 4957520 4985034
5617.61 5072892 5024281 4838336 4651713 4554267 4475971 4345331 4299636
5633.04 4415974 4427401 4183256 4025029 4182786 4335256 4230071 4074382
5648.47 4021051 3997062 4061747 4233031 4244763 4027956 3880603 3871443
5663.91 3783401 3646519 3633415 3659017 3589702 3485831 3406461 3347344
5679.34 3350563 3408832 3435752 3417367 3387716 3327015 3220463 3116685
5694.77 3110006 3228901 3287172 3111351 2895643 2884015 2960433 3004879
5710.21 3102147 3158250 3016958 2839622 2766556 2673076 2563655 2562829
5725.64 2563768 2460768 2411699 2506330 2589905 2555008 2465424 2419502
5741.07 2460977 2496819 2352798 2094301 2020492 2144053 2125866 1878257
5756.5 1708131 1787586 1937851 1962645 1922401 1989294 2092804 1978868
5771.94 1699289 1592437 1716675 1822953 1800167 1702678 1581253 1538021
5787.37 1641365 1759568 1740821 1621917 1507758 1451141 1491776 1614803
5802.8 1706104 1682946 1571275 1401540 1197930 1080674 1175531 1352937
5818.24 1433724 1406504 1491008 1729124 1840732 1583930 1153885 923666
5833.67 970380 1098643 1152317 1091799 1067344 1123400 1190546 1200888
5849.1 1145435 1198807 1216971 1105043 1030769 1054465 983210 866776
5864.54 808347 937078 1063177 901500 678493 536514 545901 467369
5879.97 503479 694322 804288 671212 588790 698409 672999 600836
5895.4 610221 688225 738072 716497 791421 807279 609904 484274
5910.83 554066 728681 869157 836482 747648 620252 549861 578359
5926.27 634137 649220 638339 703524 716790 625429 599923 410435
5941.7 489280 570363 688887 811607 842523 851123 769501 563321
5957.13 482507 444608 370764 514756 617843 555996 617003 557647
5972.57 415309 429815 488324 520817 520180 588667 567441 470923
5988 451349 450613 503423 554065 462378 457322 519352 517871
6003.43 418511 408517 455453 479590 477478 584493 532262 460014
6018.87 479917 555967 591748 530559 505794 485875 633172 556962
6034.3 617199 661386 418566 312442 379431 535285 482851 348024
6049.73 437182 575198 466514 431183 451881 373252 464390 596301
6065.16 572148 457548 470790 480845 571524 552726 490063 404156
6080.6 343943 436023 458306 485166 521912 415367 489539 628535
6096.03 530559 456332 447952 369882 477545 530059 433395 491427
6111.46 602436 679048 624654 550327 517429 602259 609459 514295
6126.9 464506 557221 551963 428474 511340 570513 589126 427778
6142.33 442886 566630 574797 448644 563005 501177 595706 676234
6157.76 583942 578944 524162 410852 422652 464994 506382 437241
6173.2 561105 640606 633899 535408 467058 409565 482011 467075
6188.63 465558 464349 563369 567326 582273 466759 357864 339522
6204.06 391105 487059 446980 427502 475850 443653 336433 380553
6219.49 498157 546823 470112 347287 413727 445020 412221 448369
6234.93 480541 496264 511945 410422 449708 494511 484176 500240
6250.36 499193 463860 420423 368743 461031 536820 515348 529112
6265.79 464462 413739 439291 501145 466903 482975 571476 610872
6281.23 544445 420958 366744 466284 403397 306918 352886 440851
6296.66 412141 407222 431351 482148 534863 436571 479376 512201
6312.09 452227 351582 263236 357888 541317 709408 633333 559894
6327.53 508710 420725 433374 458113 372928 325027 375203 473395
6342.96 431716 419961 435412 469992 417589 290921 350748 508734
6358.39 618145 569685 420366 406938 429629 388752 474437 619480
6373.82 633938 522303 500005 461712 419738 413911 412902 515708
6389.26 567837 535824 534353 615320 577068 477883 540953 595826
6404.69 560391 569061 555192 578887 536463 385566 350809 414793
6420.12 434119 471543 503566 459365 488638 467183 404847 403476
6435.56 360552 396383 407322 417470 622180 671708 681392 751409
6450.99 693802 534593 441491 400247 345798 351976 393470 412063
6466.42 481690 609610 581007 469455 485992 456725 532041 558141
6481.86 584128 478931 406813 415581 406507 435479 410267 482684
6497.29 602305 528204 496658 393444 424571 585163 569910 485295
6512.72 367989 635571 705178 708203 544325 533554 505546 467627
6528.15 441443 445090 441616 438909 591433 690956 745194 610781
6543.59 540762 607919 584731 442002 410394 519364 531820 519041
6559.02 458796 457979 487324 563966 585994 518126 426436 459948
6574.45 473476 486705 473548 500743 509593 522198 437137 481207
6589.89 472200 501638 455359 525034 664045 634128 563428 527887
6605.32 635655 633762 526332 364799 389403 358848 312719 374176
6620.75 381193 371207 338197 323217 411934 552319 573156 614064
6636.19 636672 424583 453055 394461 281216 363887 398196 372610
6651.62 456008 565895 588691 675924 665424 527197 427324 417758
6667.05 373145 425726 499348 419893 392199 460639 345176 283024
6682.48 388391 368414 384527 498316 568452 497854 456541 575564
6697.92 460685 423156 574083 596399 619583 550198 500938 503450
6713.35 470656 409600 422938 371803 319602 379032 449471 588337
6728.78 723407 741983 642447 551868 426734 320325 316904 472859
6744.22 543097 515074 489014 436438 428345 571563 561352 564594
6759.65 526872 476590 419750 295181 351817 535529 548878 437310
6775.08 402664 402582 427804 418154 434195 468699 580415 829651
6790.52 729745 511864 382381 371382 392022 451137 471906 520107
6805.95 455605 360654 392959 470194 460591 536216 666224 618542
6821.38 657739 534440 550819 543502 476634 433391 441531 485220
6836.81 483914 417855 345507 419110 528327 616732 504497 396318
6852.25 426096 547158 510224 488870 487458 472352 490783 419542
6867.68 391949 443065 496350 444604 403670 325503 404875 534721
6883.11 551638 523901 597366 488409 479822 331759 338708 456696
6898.55 519748 538781 511599 510323 499131 545897 418405 249325
6913.98 245585 265611 372754 456741 400543 490914 695602 696304
6929.41 544004 428728 444378 397437 502949 467486 376702 459627
6944.85 443196 516678 569386 501629 385381 350269 404636 427180
6960.28 434176 385551 354550 331031 382702 427436 420847 397666
6975.71 456446 455169 503420 404506 329407 340015 532254 592706
6991.14 436784 505529 490710 534043 450290 465192 434131 378190
7006.58 395477 487435 539536 450699 358540 402217 354419 295019
7022.01 420211 545374 693642 633561 520956 435443 413651 428120
7037.44 417316 394083 476441 539271 547091 525568 541006 448982
7052.88 335034 290515 383358 509639 482877 371974 425922 523444
7068.31 526166 479096 432176 458092 472406 507923 446649 483271
7083.74 520859 524934 541292 541369 501446 448941 459200 492413
7099.17 542617 569438 586169 509495 485379 438785 485856 440003
7114.61 499621 479359 470062 388206 489119 414392 411314 407419
7130.04 338042 385377 460837 412809 387405 360202 344056 431438
7145.47 566518 602888 568434 456286 393248 354917 405393 486016
7160.91 454814 384098 347870 388855 421671 419494 371072 440033
7176.34 464331 439368 575171 603990 523894 428025 406548 412816
7191.77 433969 431897 443464 532951 516996 384664 380145 437758
7207.21 463270 455278 454786 526461 624926 669593 530381 476821
7222.64 394425 315203 266362 356261 440727 326119 410987 437543
7238.07 395471 354364 442805 505279 517651 429687 351216 404381
7253.5 435623 419226 384377 347163 299467 364893 368877 416277
7268.94 421068 429491 322759 272177 321319 328027 310152 275612
7284.37 346446 394073 471815 471132 444257 427740 353417 556927
7299.8 591814 440608 324029 434884 484297 446144 302187 345000
7315.24 357013 395813 381354 478695 576668 501929 447430 367042
7330.67 412868 495886 495664 391011 317376 334712 306189 366734
7346.1 360244 394341 443248 463181 440107 500885 492692 445557
7361.54 554875 569656 603743 607745 504729 432249 345218 462170
7376.97 539016 443609 352222 259512 322477 439923 549051 570735
7392.4 544265 531707 500084 401989 340892 323601 394045 434655
7407.83 476484 625207 645095 498413 432015 426553 421999 408933
7423.27 405548 458606 376422 340226 430866 552389 598247 612926
7438.7 550420 608723 536148 450049 359020 348256 439260 364320
7454.13 344889 361601 555893 630240 583139 477907 362329 280035
7469.57 403689 502869 571334 609210 430957 270129 450841 534926
7485 501476 375533 199860 255690 387566 534708 479546 596144
7500.43 682510 600521 497014 405698 233098 336455 402213 380154
7515.87 409115 464020 513580 619394 646625 521501 481800 521675
7531.3 505079 408702 389231 317600 387745 299571 377148 443585
7546.73 443408 427888 475415 420898 358460 436304 558296 527083
7562.16 563771 594733 550344 498864 507197 353058 324505 482039
7577.6 507547 460018 438460 476397 377900 335496 429679 425790
7593.03 422911 433945 356838 377630 491373 521108 423755 453335
7608.46 503641 507565 548501 484054 413423 384295 358397 325288
7623.9 449342 455178 396825 394950 404104 444552 420311 376804
7639.33 425339 392617 391898 391464 432852 477759 391843 308984
7654.76 328954 314387 451091 515012 427390 396694 407650 491881
7670.2 571329 602878 472008 457456 396437 353672 420173 399965
7685.63 401129 398328 422099 393648 336290 375175 400100 522199
7701.06 567989 534499 637992 629683 599564 489525 530992 528711
7716.49 419165 336155 339127 340678 432133 474271 395837 408826
7731.93 448387 436911 368130 410766 327457 359028 415515 451930
7747.36 551643 617932 632347 539500 514647 485867 375492 383499
7762.79 375112 357283 376774 436177 436351 416577 447933 406784
7778.23 389708 426537 491187 510279 484833 447286 370841 443971
7793.66 531688 478244 412459 395659 374990 499584 515955 447437
7809.09 354650 334293 372520 417895 364116 328274 415065 366209
7824.53 326245 353266 439511 509522 441151 465261 567313 509935
7839.96 414730 396546 429533 377062 325981 377419 398032 320146
7855.39 428646 483546 562509 533708 520358 427345 444265 477967
7870.82 483221 480885 406020 401995 537274 612444 628619 571356
7886.26 403729 460584 495746 464938 488216 447380 345423 341653
7901.69 322990 340189 358180 388278 402397 422552 398671 357336
7917.12 356358 452578 467717 413571 329535 387243 370797 358540
7932.56 358398 327970 382853 464482 498184 503433 567578 547500
7947.99 536116 515036 482037 389349 353564 426268 350188 339189
7963.42 374154 361918 346931 450487 520231 451394 282730 381594
7978.86 460646 471588 465645 425687 478300 490702 532201 607016
7994.29 481579 343917 457079 444271 351817 378952 332319 357665
8009.72 382737 517552 466013 535204 588350 557192 467951 452872
8025.15 503455 504876 454418 379930 337930 446060 475765 492798
8040.59 482261 472782 478877 417303 327149 339123 415466 468208
8056.02 558330 594950 449691 388522 353522 361647 343365 283298
8071.45 406472 509424 486212 457644 554475 455142 377581 311004
8086.89 237239 216745 278290 411898 485815 437445 393956 424033
8102.32 460554 367041 321142 340984 372182 366585 397388 430814
8117.75 399235 332710 429974 451264 393202 456894 528171 449933
8133.19 334691 475394 511326 447100 429946 402490 415112 404538
8148.62 411582 451826 536582 580293 407059 420254 410930 347960
8164.05 412512 465138 530474 530124 529133 591438 407972 309422
8179.48 388051 505722 434557 374813 470476 523580 505169 373073
8194.92 275495 349301 494900 546956 555570 488292 494153 426654
8210.35 322449 441836 500802 373318 269271 285811 372231 444050
8225.78 376259 337551 395917 381923 397880 448604 466937 567910
8241.22 590702 607188 566039 543610 569994 312842 288551 265410
8256.65 347099 328666 416035 565366 491359 448472 392134 370622
8272.08 349890 466838 567509 579204 515657 384848 405760 528345
8287.52 585118 521482 407164 431060 419184 425889 480913 510162
8302.95 407387 408923 502831 532319 428084 329890 302966 448417
8318.38 482155 491085 450498 323099 411665 460764 414230 437198
8333.81 424541 394412 351190 244949 258185 324054 402813 427375
8349.25 465678 333043 374156 290339 324533 385900 397656 418796
8364.68 518202 493463 441869 489581 559636 404406 381724 464196
8380.11 509364 376627 360189 413393 473827 467512 495140 491951
8395.55 481381 398629 357461 381715 406017 358441 326169 398933
8410.98 509771 520669 373978 344363 372065 382961 384230 448623
8426.41 441704 371490 398382 424793 347718 325074 332733 337996
8441.84 462021 496654 447566 352675 369336 413049 464660 409250
8457.28 410851 401846 378921 398699 383971 367477 456761 449704
8472.71 450673 389057 352407 372959 360792 388936 441967 447352
8488.14 483568 502741 493507 399592 431355 498162 512772 397558
8503.58 371706 340901 301112 285849 344823 328710 350174 338127
8519.01 392584 510392 521250 385098 366849 391449 313426 385380
8534.44 476486 487864 448805 469371 430339 384753 376751 380815
8549.88 470452 544240 538088 504244 460436 338186 328887 423446
8565.31 409109 404417 440106 367543 422125 472596 419309 477169
8580.74 613144 631743 529305 360298 352541 331340 233164 318334
8596.17 386281 441348 506857 523473 447961 494960 499106 554628
8611.61 460311 366570 389835 464333 485503 454897 431352 380130
8627.04 469003 504786 425801 365765 400103 436419 424439 455928
8642.47 432487 368761 470771 487369 499117 386212 499453 674277
8657.91 654374 547055 493313 415041 389650 420456 385171 497767
8673.34 614988 624190 530080 509552 520186 450620 370624 391257
8688.77 394999 420843 333159 434060 363262 325439 397401 448712
8704.21 341896 281582 349755 328632 385008 350892 381042 357425
8719.64 456346 453900 475962 420547 459468 450163 366744 392615
8735.07 415679 425063 365151 357398 336294 366422 432494 406295
8750.5 419759 368107 348053 399726 422913 383119 338850 371596
8765.94 437962 560587 579378 484775 470796 402623 363045 348791
8781.37 327784 361544 378167 324156 375974 381484 367634 559893
8796.8 653425 600035 540236 469809 424471 416590 417651 379360
8812.24 417305 437111 470545 474350 479818 420084 321204 254824
8827.67 300975 403780 482700 432258 423189 473536 494993 498000
8843.1 488050 469774 501103 431383 300932 302096 377733 381302
8858.54 365944 357997 453360 571993 511297 384921 295513 340859
8873.97 347238 351369 373096 415784 363860 386640 383552 420275
8889.4 385271 404899 468076 456035 385934 385603 370992 518800
8904.83 502029 382952 316948 343075 364659 374050 396810 450633
8920.27 495003 511618 522898 496484 512453 510729 457267 326839
8935.7 315784 373663 363268 342217 345281 379314 374131 362707
8951.13 260665 230537 285551 418504 445339 439069 421403 457592
8966.57 401472 346581 279937 218548 203617 305049 311506 323061
8982 359116 332530 328193 378039 415806 469271 463498 406292
8997.43 383197 303230 313189 365300 314066 427306 468630 381661
9012.87 380422 365436 405931 388065 382207 512905 510917 417534
9028.3 313759 273710 391528 488414 425935 451785 408575 405069
9043.73 448254 331752 312772 433168 434061 327007 367646 448275
9059.16 475494 381974 299815 396841 445378 410354 381184 295976
9074.6 313484 365990 349187 335540 390605 373394 343774 383867
9090.03 361555 327647 324004 335557 391483 389427 384999 366016
9105.46 290652 458567 441415 415382 426436 413746 353916 248809
9120.9 328840 372847 504999 531974 478351 472517 434623 449540
9136.33 439913 454328 494812 474434 369784 414430 472197 525415
9151.76 515839 443694 359507 435642 399777 332287 313816 288726
9167.2 338506 332032 305025 350637 386603 395763 429035 400088
9182.63 360761 346184 297860 335363 354468 335487 377694 362348
9198.06 348186 480726 457680 476091 492552 556198 591954 570223
9213.49 470796 354983 334233 374123 438434 476083 444294 507318
9228.93 475819 429539 438540 408461 340294 443866 490672 277912
9244.36 257596 302262 296252 351259 334836 423054 502294 490459
9259.79 456257 406612 361779 368805 407367 394537 452407 414835
9275.23 347833 344581 344482 389183 345709 378348 387240 324760
9290.66 297725 254899 326458 350007 341720 383886 362154 393476
9306.09 399050 344319 294612 335544 381714 410808 429595 465956
9321.53 472222 476228 338515 412484 490560 523930 465998 372459
9336.96 279180 311912 362513 284601 270982 401436 435764 399072
9352.39 390693 359041 393696 361277 316088 376303 372926 333282
9367.82 383039 445030 370655 397464 369950 356935 410988 351427
9383.26 314074 327712 393939 359129 353299 416214 412465 362296
9398.69 433248 481892 504207 414427 325882 326977 326512 363462
9414.12 405009 394865 421955 363812 352951 356932 351210 349906
9429.56 382890 349126 306628 405910 436629 434961 300969 264527
9444.99 287764 365995 367848 420998 429277 421353 411051 374082
9460.42 410325 411061 410698 411177 303095 264185 369086 439171
9475.86 465911 404650 300040 284567 240127 352391 383247 425545
9491.29 522020 489698 445431 407415 442237 461819 472679 389395
9506.72 425679 445123 399494 307630 301025 325691 269797 265147
9522.15 404582 412361 403567 372882 341197 294737 266125 221309
9537.59 272573 330136 380064 362733 371432 443190 387296 428368
9553.02 396562 347324 364345 384209 394684 414175 441652 373405
9568.45 338833 347265 401444 275204 300704 273913 363013 411269
9583.89 417712 456762 498956 447097 406434 284259 292300 379227
9599.32 500310 463301 397721 402732 371305 279929 280991 319407
9614.75 231557 292035 309935 309677 344144 314194 301356 344067
9630.19 406283 424230 408845 412983 375953 389179 408184 407900
9645.62 353533 370988 412282 427988 331178 277436 304693 364412
9661.05 398552 371570 470175 447335 449669 469800 391784 326491
9676.48 274197 283308 279081 287038 352264 391383 412346 352827
9691.92 366229 405905 354966 275356 317772 356094 387044 340559
9707.35 264812 287650 348899 294016 300077 317240 322958 313980
9722.78 287556 304989 270263 223173 274002 424252 521811 465523
9738.22 346471 385365 337608 264721 275977 318033 324252 320907
9753.65 336552 350150 420301 372675 292722 349000 402840 372754
9769.08 350416 351777 336399 310386 391996 362878 298778 357097
9784.51 326643 345878 394850 384088 354476 298906 306801 337505
9799.95 348689 315113 336873 345954 410639 399697 364048 400921
9815.38 415248 441096 506757 371169 305668 435856 408291 313451
9830.81 249449 343554 359765 281643 312310 397217 410541 434854
9846.25 404082 373829 445859 389439 278750 388044 410524 291133
9861.68 174739 208551 286408 330894 371289 368241 273138 309626
9877.11 373070 417918 428224 385913 384642 380088 406158 407881
9892.55 406871 346656 361910 332483 362089 302502 246893 293949
9907.98 381136 432941 399664 337866 300306 321857 303805 303257
9923.41 351028 422379 485040 450314 401060 476747 402904 416675
9938.84 497599 401155 387266 356177 342415 267586 258300 309432
9954.28 364731 349809 353495 313402 423543 422039 442820 408608
9969.71 360245 396452 425416 390051 331409 275445 268746 323787
9985.14 405519 389111 355897 345773 336252 338360 303164 264358
10000.6 237457 263214 275964 406971 498532 470306 346030 306917
10016 368049 336452 263353 295437 300554 371037 370824 362138
10031.4 359096 330103 301848 316240 316086 263051 243488 333147
10046.9 348166 290062 259113 344847 451485 495769 458460 431363
10062.3 409614 448320 408877 398181 365562 435344 429506 292113
10077.7 317867 416983 458212 450615 437434 326415 302201 283874
10093.2 391017 433752 401973 280591 284293 417501 455109 282650
10108.6 262171 269245 249023 273193 265770 388232 474562 360963
10124 270885 324473 235078 275742 326920 337267 362158 377548
10139.5 277176 259119 296694 292278 276203 368868 375030 409229
10154.9 405571 408001 370963 340567 359766 420993 433659 381113
10170.3 313381 324456 448098 507365 440651 381559 326854 297901
10185.8 244470 288779 289933 291456 286112 326861 392936 425992
10201.2 387451 384337 377171 402343 408250 449953 413905 323592
10216.6 363686 429602 322349 263811 444499 522649 466459 412056
10232.1 418787 457514 576567 500575 379148 403590 313939 288461
10247.5 372052 473521 388403 337530 307687 428706 567197 572525
10262.9 522498 447947 346960 311210 293525 281526 338168 296897
10278.4 247673 272578 252690 230836 309383 351814 294294 347067
10293.8 349679 342163 390040 377125 254065 275872 318836 322068
10309.2 383590 435713 487885 396266 372259 334183 305081 317671
10324.7 305896 282531 283463 344518 411377 345012 250885 279184
10340.1 292368 322849 327537 371500 294963 303691 294411 341260
10355.5 379297 332987 252162 253079 265906 285693 267398 328217
10371 361094 332546 299342 388634 457815 373256 387175 491078
10386.4 460614 409136 394835 415244 385565 449117 479910 349086
10401.8 260378 271683 213441 270531 383303 354087 340952 423749
10417.3 479957 444682 411286 352150 385885 275006 249389 391702
10432.7 415088 496146 395004 268219 237661 306463 262795 264584
10448.1 269609 269178 364852 342018 273979 341192 350260 439991
10463.6 491945 480512 400054 317717 384093 445696 376126 390303
10479 286961 218409 205987 309255 370381 368391 368298 294576
10494.4 292481 415796 323875 316687 330763 292655 275487 333895
10509.9 373406 352573 298071 215838 213194 292513 340406 348837
10525.3 402219 450267 339927 347469 365032 271167 256692 317154
10540.7 282911 304298 351661 452607 434064 355389 280484 236398
10556.2 221499 360865 404101 356678 371363 324725 312725 293013
10571.6 278756 209175 271176 341449 423742 415803 405026 509651
10587 543973 470367 395465 328295 202663 226635 337553 431855
10602.5 429310 360585 263421 311705 391315 364031 304369 312819
10617.9 355796 416686 368756 424931 400445 233738 249209 292346
10633.3 287125 295897 343594 380020 414692 372053 303818 345536
10648.8 413965 381098 305574 303161 319779 329069 388697 438771
10664.2 391584 350424 332864 356774 400393 364242 342769 356489
10679.6 400097 358484 344759 391899 421168 386195 324335 314541
10695.1 263075 279040 329373 315629 329352 333149 320808 343638
10710.5 327831 358512 367549 404624 385307 288103 309369 410379
10725.9 386003 318668 329862 318062 279807 292819 295633 290668
10741.4 328235 370200 307891 229671 234513 306370 335153 291917
10756.8 281586 359305 450981 485719 424572 384639 396490 307653
10772.2 222881 234027 284066 278664 243375 371917 448632 360863
10787.7 350804 313473 302933 325119 306159 272067 341779 366735
10803.1 345844 321851 263791 272229 385500 385994 330061 356594
10818.5 329637 267198 313059 341786 376380 406429 369100 363060
10834 355889 306068 339054 357180 375925 403605 287903 361176
10849.4 397215 290094 267863 300942 296521 277968 262051 330833
10864.8 399326 390892 375654 314020 280056 295933 259225 238739
10880.3 289092 390123 387575 428773 424838 368068 384300 333375
10895.7 327841 389953 375048 334869 357362 348312 391519 445329
10911.1 348356 249047 249108 256134 221097 266441 352379 391020
10926.6 493570 463054 337831 269797 297144 299906 277053 220888
10942 204474 313768 370238 355838 336718 274857 285137 345210
10957.4 306720 258499 270655 285415 314576 269911 281084 303803
10972.9 310418 395440 398234 343963 285672 284982 273593 326878
10988.3 267274 312759 408249 489872 365619 334088 287707 282371
11003.7 297699 231276 306216 322214 329457 473170 564021 493667
11019.2 333882 290306 350906 373984 339180 335070 275572 251159
11034.6 283951 351321 342660 469556 407733 322443 371850 337413
11050 252311 323187 339982 329482 253945 264277 277094 295610
11065.5 317436 304835 301945 343309 344390 251885 210495 311257
11080.9 365202 368774 385444 412314 367363 336670 306143 324912
11096.3 313111 344492 332320 298809 327388 419302 380359 291105
11111.8 302403 389578 410185 375018 334292 324512 357280 386094
11127.2 375137 356228 284109 260816 238855 230774 282834 300939
11142.6 241568 238671 303753 312275 296930 409716 385933 308491
11158.1 314879 431003 433123 312068 324034 290992 302844 330700
11173.5 363156 371980 372314 364413 384474 368594 365035 385733
11188.9 383311 431209 399718 310753 269269 253578 245754 349246
11204.3 369784 294911 297692 365811 463144 439886 326078 363537
11219.8 309288 335552 292121 253163 312311 374223 365812 316858
11235.2 256509 306408 400607 391227 374170 426393 440099 293873
11250.6 208283 278245 312352 261452 257298 259684 249560 279489
11266.1 305473 279760 318328 392553 415751 347565 355927 343041
11281.5 331114 328731 315012 400937 497699 446580 333289 257895
11296.9 268931 269479 345321 372546 370521 344008 296118 270064
11312.4 251332 214299 271115 339710 350152 342816 324613 308205
11327.8 344078 359301 339418 300259 262716 294932 356062 340239
11343.2 356605 330965 277445 340630 396220 375044 296545 247278
11358.7 257182 331083 412364 411938 361823 339341 338262 360366
11374.1 313599 334780 342048 355376 386743 384970 373963 325842
11389.5 297647 298713 320529 302899 278517 278809 267887 240026
11405 224486 230617 287842 357382 334205 312645 327278 321546
11420.4 234977 209613 271472 280015 398769 364679 357687 312045
11435.8 354766 354077 323139 337817 332641 383629 384333 421142
11451.3 523207 422260 315218 338055 326125 331282 334222 355408
11466.7 316564 326398 354181 405249 437774 404542 357194 309327
11482.1 260362 293318 315156 341896 339315 268491 280355 237754
11497.6 227288 293058 400045 478951 407377 340074 248305 285373
11513 348957 330955 292493 287333 323031 320739 354364 417680
11528.4 412155 382112 314255 378640 392089 335282 281960 285447
11543.9 303610 339403 357438 378501 389200 446973 421044 342550
11559.3 326700 355244 384283 398829 342184 303738 290818 273804
11574.7 252454 312698 378325 297574 251254 282673 289534 312738
11590.2 303889 292816 328154 414202 427505 387162 238395 238018
11605.6 267525 327799 350889 370285 293114 211442 271720 366584
11621 398961 352059 318070 349175 367162 337781 300909 286807
11636.5 350365 347540 269466 322801 348659 325169 320497 326583
11651.9 300596 341779 298882 307307 286338 307687 271597 325514
11667.3 322346 304513 314169 317949 256875 255816 335166 350866
11682.8 345745 308324 302845 349943 324102 356657 330265 359642
11698.2 360329 293137 289351 364891 337880 334895 287399 259515
11713.6 291159 365736 349364 379163 356121 295012 261317 299297
11729.1 295831 321781 324833 289066 301770 329300 356105 331183
11744.5 299619 334988 344088 284952 224066 233980 306860 298617
11759.9 307851 292477 316137 300151 223966 285176 360283 397902
11775.4 356958 365941 382765 355642 365617 313247 234533 242178
11790.8 228801 276833 305871 348669 316264 240338 259644 326654
11806.2 324116 326902 274194 287814 301031 296547 305386 320274
11821.7 367014 390160 393314 433498 373386 264862 294857 293160
11837.1 273205 265653 271464 296110 284051 344144 317626 314403
11852.5 338323 309932 275364 285292 326773 386510 411422 308911
11868 294366 343678 337092 421504 405613 307318 262419 249662
11883.4 268878 247756 274924 336817 305538 293799 341435 378514
11898.8 345131 355796 325838 267705 257459 325283 334685 319486
11914.3 281390 251661 244387 381192 357240 286291 300668 342027
11929.7 345775 335684 305488 350797 481075 457113 385920 312482
11945.1 311829 274366 332859 366440 382582 329938 277138 300427
11960.6 269252 263463 232385 196854 355103 458539 394927 269100
11976 314706 341100 288959 225216 229864 268076 350561 351339
11991.4 295003 343835 326643 336202 327408 288858 320310 318878
12006.9 336692 369173 349757 329506 306041 286090 288351 250288
12022.3 198080 242690 345690 370969 257909 253742 211471 242883
12037.7 332825 366404 298533 233973 332991 334482 283469 303196
12053.2 391644 404574 356938 241790 247161 230785 289793 270617
12068.6 296402 327869 260585 220642 232769 352951 372977 315500
12084 289974 286540 311858 343833 315209 260303 245100 254058
12099.5 283699 248194 243499 307668 346289 365242 394616 375601
12114.9 340878 295718 286858 301088 280561 312787 336418 321391
12130.3 247112 307512 329595 326260 179962 183028 319052 327844
12145.8 267726 268650 316907 310302 258257 279579 271079 281608
12161.2 309702 352536 329686 317635 334203 349071 281032 240881
12176.6 321663 310225 268932 273008 329439 370585 358283 348674
12192.1 324476 374412 367887 388416 291570 301584 316508 310188
12207.5 334273 393489 389766 344583 327987 306532 374753 361673
12222.9 302667 299825 351031 395827 357596 293943 296105 246175
12238.4 235300 280882 376908 385098 370657 374237 321314 308792
12253.8 359568 321884 342352 327797 373007 309196 281321 359642
12269.2 389288 354122 311663 305200 336880 326078 345748 319039
12284.7 262404 295700 326853 343153 395555 273959 253589 336757
12300.1 366260 298867 309063 360816 396051 362556 342310 300912
12315.5 309290 264213 332496 431436 456566 390403 321080 331980
12331 312691 294447 348206 301565 298893 303673 252477 249733
12346.4 291465 275763 293379 308624 305976 339994 390186 377506
12361.8 316590 325871 322865 374219 362905 375897 356376 324571
12377.3 300166 266630 332415 347586 324325 318849 297378 296612
12392.7 336413 290990 248211 253290 264929 301835 328073 326358
12408.1 354193 348792 308479 303517 287828 318895 281514 289707
12423.6 308714 363506 381142 384962 336739 301019 277617 274213
12439 262575 333051 313341 264115 339914 380582 327028 284548
12454.4 288506 381600 428891 433708 436347 356204 324303 341931
12469.9 273327 261012 243436 254688 349452 274988 271975 301264
12485.3 361254 344089 323335 270086 223682 334386 343917 324456
12500.7 273429 339747 341198 332982 304133 271265 229362 184298
12516.2 180317 265164 299125 348916 420297 328938 330020 304941
12531.6 255925 271686 312209 351325 320828 254834 282041 299862
12547 220694 210127 252500 360918 352304 319032 307924 249406
12562.5 247675 278688 450045 439547 293192 332850 323102 344976
12577.9 348936 284133 248935 332553 371115 252040 275920 276194
12593.3 236753 294013 421882 450302 417248 338919 264946 248552
12608.8 227714 238556 277640 374062 329026 316612 306526 277352
12624.2 214617 221639 300435 280456 343737 352764 291957 263935
12639.6 261177 238551 228304 247713 365108 382131 336827 340663
12655.1 353888 390323 330855 319403 305469 270867 236853 225079
12670.5 279140 292747 304658 346374 348172 304749 283693 356933
12685.9 422804 389080 363509 316095 297144 346569 348247 301418
12701.3 273012 297468 360170 372653 299860 339618 367274 345592
12716.8 316790 257901 284746 368932 349845 322240 303239 310156
12732.2 307574 354714 314935 367304 387761 414860 370796 308151
12747.6 279172 323255 339406 341002 286362 285646 386471 382754
12763.1 339493 239286 274514 266213 267981 226591 127460 169882
12778.5 206677 215644 265340 246716 272607 310252 289753 217917
12793.9 238169 320742 341156 311958 319535 332624 278846 284221
12809.4 308376 255265 223641 288142 375905 397286 275486 159195
12824.8 222286 245983 294702 273306 323273 382977 437746 468026
12840.2 399320 312609 272132 226047 245481 235192 261232 320986
12855.7 336484 328918 330926 293466 340060 405645 333278 231350
12871.1 273755 325697 269755 248592 245638 315005 386759 310717
12886.5 260203 266013 327081 320369 282789 371128 360622 362981
12902 350842 269300 261978 304017 340140 309552 231067 263942
12917.4 268008 261284 337600 390667 309410 223611 270111 295233
12932.8 332763 345037 363118 298873 288581 256448 148996 215419
12948.3 309130 329498 297322 313237 417695 366978 302475 253486
12963.7 277910 326615 321584 362618 344716 323295 286511 279101
12979.1 288905 311413 332217 434899 444316 307452 239377 248083
12994.6 274420 243765 239345 243872 261096 294570 265732 286784
13010 235677 285433 277882 295040 252115 245551 237551 267680
13025.4 386800 444232 309144 264733 215551 155977 166046 250798
13040.9 296039 244758 138260 193221 290249 208977 204470 286820
13056.3 291943 312166 322838 279135 298495 320687 380495 373119
13071.7 352301 297583 237993 251888 234146 192061 185416 142037
13087.2 162422 182507 273725 317927 319116 306658 311219 253529
13102.6 268798 238430 286571 341165 370614 278385 239360 199468
13118 238522 229315 275440 290971 275096 268430 299814 326060
13133.5 342055 361907 352252 363286 311899 253750 286196 307040
13148.9 288523 280903 303767 301853 317303 306839 270449 289581
13164.3 333115 324735 406730 394532 366003 339367 289081 230341
13179.8 269503 342195 382413 343577 346107 313830 266701 299213
13195.2 334884 343586 295979 292474 262299 283447 282037 310480
13210.6 414402 416341 353714 323742 276274 336004 359289 322667
13226.1 333547 348906 347971 321352 263558 269722 301398 234146
13241.5 255546 299678 257726 330494 361073 322286 332956 307146
13256.9 264048 281315 346349 382536 415258 365190 296161 263059
13272.4 280728 357076 353331 294252 327264 261509 277504 285201
13287.8 238550 241543 290300 283498 292978 232511 213821 305381
13303.2 399692 348832 283551 326685 365429 320456 266983 214438
13318.7 236249 302893 316253 262468 229476 316537 308807 269925
13334.1 296756 324378 314387 303079 288326 242735 185831 244821
13349.5 265270 275265 320087 379746 358596 290201 292144 300071
13365 260565 316683 293832 297227 302074 322331 348622 376351
13380.4 334769 326125 272656 209890 211746 236528 323986 306958
13395.8 328550 354596 311291 364712 313599 292829 311655 408739
13411.3 395057 380649 362503 272280 277286 288384 307118 245874
13426.7 168746 190075 226051 230351 263419 328976 289581 340094
13442.1 382217 373503 261046 298271 296489 344052 351904 336564
13457.6 302186 316849 324706 360823 271015 327628 321999 360062
13473 335405 366514 372678 309657 321724 296838 314440 218579
13488.4 239328 240278 235392 238884 309310 316673 336838 270753
13503.9 255318 294840 286528 270811 339378 362499 350837 325926
13519.3 309312 267106 271522 328703 376002 428451 406555 318265
13534.7 301949 242426 246824 212155 247338 278430 291962 272748
13550.2 279361 316842 341189 289036 308500 295283 262198 253887
13565.6 307100 276897 282783 282906 302441 282153 263886 230904
13581 266763 257601 203001 275413 346563 308089 282240 313078
13596.5 351115 380936 340786 348088 316233 224355 211062 248662
13611.9 293698 324741 295184 282506 279135 226856 286122 314811
13627.3 328461 252489 311860 359726 352057 253903 261174 271850
13642.8 317559 306398 279368 266500 279964 290881 306592 317988
13658.2 340070 235516 247188 222193 229203 264193 260558 307917
13673.6 340450 312231 224786 223505 209956 235096 295534 357142
13689.1 363478 281390 310398 321450 315435 297012 258518 271507
13704.5 285989 295732 288096 324319 338271 397956 431808 380489
13719.9 307009 271013 228251 188527 213353 234144 274122 245068
13735.4 195073 251354 264875 304567 319233 266528 300164 320956
13750.8 304915 267509 279469 248792 268494 372362 418961 362835
13766.2 370622 380007 361569 261013 133889 213347 279611 295117
13781.7 315467 307043 305561 300785 273210 344968 374967 439769
13797.1 367941 353203 320358 233259 248648 249590 293298 285183
13812.5 304195 342631 337476 346746 326812 336814 322599 306398
13828 311868 262000 337112 375891 368649 386563 360691 422520
13843.4 490914 421507 402370 414817 400918 285181 291124 319138
13858.8 347863 375982 403300 479796 427644 344067 273260 286009
13874.3 279992 246212 268035 273746 307752 279104 276132 309218
13889.7 349874 314183 286891 298763 322046 284806 309162 293719
13905.1 253553 271317 333965 315219 289122 339217 414766 450338
13920.6 392787 306806 284675 292571 249679 269358 286764 346714
13936 389072 303665 198374 190756 191073 255953 320736 328899
13951.4 284019 312165 270496 316205 363453 369474 301541 314575
13966.9 286622 311502 349277 300785 284443 354180 408336 307948
13982.3 234718 269420 241847 275352 369153 381687 329702 266694
13997.7 266936 277287 260572 261067 264125 286874 304622 293638
14013.2 286356 284676 254938 234482 302114 351024 345101 307783
14028.6 259206 327159 368185 356763 320976 264681 190454 205069
14044 226624 246165 319803 329919 296483 355766 366799 310155
14059.5 266284 359655 351428 307674 217084 263860 333350 308708
14074.9 360701 321809 347021 364623 334721 276232 289729 297116
14090.3 250402 289465 300195 274765 301110 291827 318366 285148
14105.8 350836 314125 314527 290502 328458 331659 337046 291905
14121.2 302784 331109 338523 330713 311257 273901 268671 330565
14136.6 318780 286287 318440 343868 432280 454120 411529 339232
14152.1 276852 338934 357753 350948 344888 308114 347327 395019
14167.5 353742 366981 306565 304924 312078 287207 233402 257139
14182.9 370488 323750 270821 247659 208914 315019 363195 327686
14198.3 325228 264070 235086 257968 230198 222515 230389 274772
14213.8 334679 295774 226528 289911 273780 241238 270450 282792
14229.2 265681 280921 296134 311096 327818 311930 298323 254092
14244.6 225022 240101 218596 251592 312774 312347 323167 291682
14260.1 227293 273207 285218 228366 195478 214374 228068 205604
14275.5 255810 310293 366206 361465 358644 264389 237519 234242
14290.9 210156 177517 227652 247836 239167 258195 340619 327654
14306.4 280909 299419 246733 205297 205609 245477 235474 279629
14321.8 264696 225217 278966 297420 343190 301313 248991 284443
14337.2 249691 222216 239012 305771 317541 224929 191731 282383
14352.7 368723 360704 328954 257158 216193 224563 315655 318116
14368.1 279076 253568 267888 285594 273959 260296 250160 272256
14383.5 283218 290386 266335 343859 374917 261815 187740 257958
14399 317907 308945 303406 252849 241730 281473 304431 302948
14414.4 238519 191793 235745 241600 276699 252084 199528 247164
14429.8 329740 363177 306297 305350 322240 310902 301944 322723
14445.3 272832 239712 223558 286954 349645 332736 325867 330814
14460.7 319732 240685 254596 335662 329889 336030 325972 293846
14476.1 288776 322323 346283 301361 268818 236730 225476 234221
14491.6 228760 240032 271621 246002 240316 293753 316682 347324
14507 333221 297373 277669 312904 339989 333646 254491 275858
14522.4 298656 280620 286797 415614 407946 359949 319568 277826
14537.9 245307 248048 347787 394593 364900 315643 296233 288674
14553.3 262880 316788 323716 325770 281640 298684 235329 245693
14568.7 256796 245029 248154 247328 264934 331718 329315 266211
14584.2 316870 365141 367986 338504 300788 286020 243268 244060
14599.6 219476 251762 282266 337941 379728 343596 297292 293084
14615 339298 329384 237234 196215 255743 297335 297165 266920
14630.5 321318 356326 279324 278388 308872 279835 309376 325865
14645.9 314118 212463 260136 301580 280813 270773 261768 242062
14661.3 227976 329255 361513 311296 281544 272216 262645 202397
14676.8 207190 319114 405368 327132 259498 309428 281532 192444
14692.2 213858 173584 243300 363684 361069 256514 213671 198371
14707.6 224773 265538 257439 235475 288415 261138 277281 272844
14723.1 233731 281770 279842 247021 175978 179948 238851 298300
14738.5 265831 197231 192277 229763 234221 221048 257213 272140
14753.9 318236 315679 259881 234285 231361 234656 248651 227027
14769.4 228546 212924 248673 298821 347116 346975 308290 262684
14784.8 300341 290114 304542 245554 238904 219898 245003 283406
14800.2 264177 216978 249152 228801 183291 269784 321275 305875
14815.7 254950 282093 248739 229331 253782 227001 249526 296548
14831.1 253649 203562 221564 280315 327393 341410 314923 282446
14846.5 264906 261472 275801 256248 252473 270623 259056 294206
14862 248982 218086 233003 277973 277538 316867 360461 358779
14877.4 352828 365182 323476 290746 240593 308918 313804 331968
14892.8 369213 283762 303549 260040 259367 281092 229330 171709
14908.3 226697 259181 271000 287546 330159 336823 352463 282595
14923.7 192271 195340 191220 252287 277505 285450 243570 278715
14939.1 304635 385550 409166 414430 366122 334022 317885 255764
14954.6 194332 184699 202267 242825 313978 322706 265370 255443
14970 306247 310801 347955 327665 298377 331973 259595 234621
14985.4 276595 285259 277378 263933 280459 257407 222112 274542
15000.9 241850 244902 275846 244832 237469 184956 204531 265126
15016.3 264228 306195 304044 305154 302485 222243 187870 150706
15031.7 201460 242428 291133 347942 331294 279300 255854 198555
15047.2 221825 297699 370328 331511 282990 234197 241326 242896
15062.6 231178 228286 306566 313528 283447 287673 310382 275344
15078 254329 257021 262161 264917 267758 288852 247333 228873
15093.5 230222 272276 309522 302255 274222 298173 314354 319719
15108.9 276816 227355 306179 314557 316557 300370 335919 399570
15124.3 414364 365429 265522 231769 251170 227370 218747 260360
15139.8 239908 313463 348138 341003 309121 246454 285587 364740
15155.2 413385 312826 239254 206134 201473 216300 213976 220017
15170.6 287913 226560 158868 217803 240124 251068 237809 283673
15186.1 356013 360290 346025 285851 265182 265662 249331 231303
15201.5 207529 244569 282186 264896 255980 296909 331717 356495
15216.9 309387 247364 333099 350497 312699 288832 195132 174870
15232.4 234141 320284 371138 382903 365740 272815 340473 336579
15247.8 262742 235984 252838 203669 196569 257225 243035 250524
15263.2 314546 322321 309095 306255 290491 293755 264969 281626
15278.7 276130 267909 286632 279787 359120 311789 377857 435526
15294.1 370646 238854 204173 277831 272936 228208 288731 291547
15309.5 253385 238313 282648 291663 219729 230921 256829 355734
15325 293147 328393 393432 425655 308965 209951 218290 221434
15340.4 318473 364181 330325 286031 288464 317283 277589 237814
15355.8 266055 316085 293102 297360 269871 324215 347004 366741
15371.3 358857 289918 259219 300149 258397 220719 307734 323039
15386.7 232118 295265 300097 329722 384302 370732 325478 326719
15402.1 268896 231588 221909 249447 279454 277797 312480 280866
15417.6 282067 266620 241491 256136 296003 300401 254973 252274
15433 205256 149791 169023 224601 306560 393693 385364 374031
15448.4 374890 357965 287562 303163 277987 311976 323651 316614
15463.9 300727 309438 321298 337764 313014 309187 319695 328298
15479.3 259013 295706 324191 236107 220446 255698 276252 302357
15494.7 303244 333213 336451 309857 252471 287917 318009 343857
15510.2 395661 368113 332013 300839 284994 293256 257199 203860
15525.6 258913 292412 256566 287164 273969 213508 247918 332512
15541 308791 243097 216285 235717 297899 240575 318594 339613
15556.5 342836 404840 299388 245604 267109 266953 314961 304250
15571.9 233157 201351 204939 258126 225154 332264 396916 399887
15587.3 401815 429347 366658 376852 390450 302776 308910 329395
15602.8 364390 354818 325532 325497 341282 278903 244393 290196
15618.2 292123 236754 235872 210422 264828 296759 262766 300555
15633.6 290321 317598 335473 318244 305286 292134 288263 241121
15649.1 243720 266917 324235 303052 292000 348100 355389 270522
15664.5 225161 269074 281779 242804 204202 251579 305609 279828
15679.9 276796 336524 336751 337928 326127 296029 334385 310971
15695.3 359575 305769 345122 361661 328726 288841 321647 355891
15710.8 315536 286891 263028 269107 270495 270332 297163 300091
15726.2 346074 323528 229090 238900 316999 291844 276269 294651
15741.6 260271 224712 204741 221184 241323 272184 282373 259178
15757.1 193424 244683 298773 309168 250042 212035 239177 246426
15772.5 233951 251428 234750 256401 234604 296359 354509 342522
15787.9 244489 260241 271352 286829 274251 276450 326033 525866
##END=
