##TITLE=0001
##JCAMP-DX=4.24
##DATATYPE=INFRARED SPECTRUM
##$NOTE=15.05.2024 13:42:58 4 ^0 x16 v:1 [Приставка: без приставки]
##$PAR1=2045
##$PAR2=2351
##$TIME1=51007
##$TIME2=51217
##$ITAB=-1,-1
##$NAK=16
##$RAZR=4
##$APO=1
##$REF=7901
##$DATIM=2122677098
##DATE=2024/05/15
##TIME=13:42
##XUNITS=1/CM
##YUNITS=TRANSMITTANCE
##XFACTOR=1
##YFACTOR=0.0233206
##FIRSTX=0
##LASTX=15801.451535575
##FIRSTY=48780.8417294
##MAXX=15801.451535575
##MINX=0
##MAXY=1.25202e+007
##MINY=3191.98
##NPOINTS=8192
##XYDATA=(X++(Y..Y))
0 2091749 2541659 7254931 4925834 1829998 1676834 1287273 746449
15.433 799722 626516 673400 788052 669246 628545 842290 747441
30.866 522233 534096 461120 504636 579544 546695 622315 649903
46.299 501941 516602 577990 353659 309759 361711 370769 386154
61.732 343392 311547 473929 547965 488088 442102 466143 313896
77.1649 269120 320114 341256 357901 391200 347466 474144 405408
92.5979 321976 325154 325163 377358 470851 525867 493667 476090
108.031 386963 303162 306184 310406 246111 339895 388484 419399
123.464 399336 382785 384498 437178 405369 334003 351634 358276
138.897 307938 377731 383403 328343 335701 393662 405509 425981
154.33 364810 338772 383372 417480 425382 415834 430477 435489
169.763 455237 454528 476926 530386 496419 465594 455840 392916
185.196 378924 345730 353057 424382 461353 408600 332386 326929
200.629 310068 353667 374854 358340 367341 342423 349417 366213
216.062 355784 360015 438227 448164 426393 469132 416982 321375
231.495 260551 334095 402613 446070 361102 357458 383947 391777
246.928 407285 479485 473763 438399 427078 431908 429115 337775
262.361 315947 343448 375708 427752 427547 475977 476614 458330
277.794 428423 387829 357877 409849 364414 320540 360064 408780
293.227 417720 412060 471365 580150 632416 549497 420149 319977
308.66 318869 295863 286576 409535 486678 502349 412311 357189
324.093 311154 320329 349344 477242 598390 628437 539928 444886
339.526 419738 427250 461687 546487 613800 657787 706268 589593
354.959 413834 360923 389168 406836 422942 471405 467220 476395
370.392 436951 433705 463185 483420 510689 529476 525587 490247
385.825 455443 493711 572142 643566 644708 639182 705860 738142
401.258 580795 490405 557106 627977 549756 486223 465044 548026
416.691 537150 511967 560246 629098 641417 583775 540940 593111
432.124 613393 514671 444134 489838 560172 578236 628227 726724
447.557 695741 639336 534508 467372 549116 615967 726628 866903
462.99 946002 1126076 1374735 1514993 1545858 1593925 1772009 2033951
478.423 2267795 2472707 2681654 2903222 3202748 3613770 4070396 4550310
493.856 5112437 5774800 6466034 7161686 8030593 9206025 10515591 11812575
509.289 13248542 14834035 16207893 17154547 18008660 19279976 20900996 22277656
524.722 23336375 24718244 26583094 28316819 29625177 30782072 31885081 32822519
540.155 33686252 34589461 35437459 36177935 36929310 37753068 38542288 39166678
555.588 39608746 39921376 40152214 40417543 40819175 41196695 41471250 42071202
571.021 43205987 44331204 45212989 46452665 48328823 50388969 52409139 54599640
586.454 56845296 58658244 60075201 61827646 64144478 66273241 67698112 68731755
601.887 69672347 70395804 70696302 70607206 70537952 70711817 70646789 70198302
617.32 70449514 72246524 74748490 76766512 78503376 80575011 82549781 83839393
632.753 84647799 85345030 86221024 87413381 88598058 89743760 90948783 91533968
648.186 91727870 92761636 94185610 95780752 98731384 101445586 103128184 107165979
663.619 108632973 96531392 80210349 82458964 101035493 113782903 115635753 116420287
679.052 118168720 119058931 121255412 124579903 127085354 130031109 134157079 137924584
694.485 141133184 144545328 148113719 151705244 154969389 157426419 159641819 162165273
709.917 164351507 166127417 168380936 170429869 170713092 170540418 172763226 176805533
725.35 179721020 181109936 182594355 184461521 186144174 187703752 189234190 190646848
740.783 192108313 193741558 195467564 197171111 198627454 199722935 200695024 201799701
756.216 203110962 204677062 206503754 208487553 210469498 212325171 214099950 215921605
771.649 217741153 219461757 221194579 223037952 224836426 226425697 227893870 229458535
787.082 231242182 233236809 235399918 237720160 240180299 242663149 244942375 246784929
802.515 247950649 248149259 247397040 246487248 246614425 248361776 251340440 254738530
817.948 257956549 260868749 263660004 266411559 269016788 271502534 274032870 276572072
833.381 278902700 280806650 281951159 282085610 281641820 281479456 281841528 282296571
848.814 282732230 283642665 285439310 288004333 290910013 293829436 296665951 299364529
864.247 301820255 303930225 305570751 306871459 308564582 311376757 315151402 319233371
879.68 323288054 327185778 330694865 333698563 336315067 338702574 340912781 342914219
895.113 344766576 346673469 348719076 350762567 352708057 354610269 356511859 358430182
910.546 360410285 362424844 364378496 366268783 368161860 370046763 371870480 373626394
925.979 375346706 377079961 378785544 380296626 381629612 383103507 384873090 386752610
941.412 388656434 390673708 392726614 394669097 396549829 398429744 400222111 401874117
956.845 403359781 404453605 404942775 405155201 405855833 407446758 409592668 411778704
972.278 413892294 416014910 417986191 419616761 421095083 422704872 424405004 426093070
987.711 427876268 429786059 431680921 433512952 435251106 436651751 437520704 438083351
1003.14 438766533 439685377 440632329 441508393 442419863 443396062 444319311 445054600
1018.58 445534148 445871696 446278095 446719502 446978820 447107168 447402453 447964564
1034.01 448601299 449126906 449580145 450115671 450717672 451210843 451592437 452038319
1049.44 452575903 453111943 453670885 454294847 454981452 455901193 457236262 458787612
1064.88 460271453 461798086 463511639 465195553 466704274 468187325 469631715 470852312
1080.31 471923352 473032939 474141337 475109541 475844492 476361119 476948169 477884226
1095.74 478953993 479813101 480565101 481382818 482054266 482392746 482540443 482607950
1111.18 482574270 482605292 482947061 483558780 484266906 485088563 486087510 487219207
1126.61 488501317 489956356 491371420 492513269 493441525 494254543 494785640 494887431
1142.04 494745923 494595707 494355301 493826496 493043876 492191499 491366051 490583255
1157.47 489876423 489311823 488951964 488827203 488993604 489521789 490232151 490677056
1172.91 490759981 491014775 491799815 492722845 493298489 493481957 493300107 492753193
1188.34 492042255 491222278 489924035 487749321 484730362 481505950 478907917 477272866
1203.77 476723940 477495157 479151872 480762952 481752703 481349634 479688260 479996827
1219.21 484652455 489953574 490944897 488547377 486508242 485861836 486151848 487577407
1234.64 490092055 493148934 496293709 499019213 501008143 502636652 504339960 505679196
1250.07 505990831 505778365 505964715 506052891 505204764 504414883 505082830 506431970
1265.51 506365170 504125613 501492847 501630502 505919929 512050315 516715001 519449973
1280.94 521853686 524021710 524501804 523645874 523948413 526192935 528217852 528600477
1296.37 528654350 529929638 532135404 533962449 534938161 535955652 536870911 535447032
1311.8 531627508 528208803 524885362 520353543 519093872 524122062 529688147 531622336
1327.24 532447264 532583772 531214972 529037642 520045598 499566146 482652113 487966008
1342.67 507852352 519446144 516837256 512003593 510978346 507886300 502502329 500960632
1358.1 495002694 473197769 452327154 455519123 472584367 481469952 478210194 465026805
1373.54 450388917 452281989 468813656 481656336 489459712 490326661 472530017 455356898
1388.97 465524783 478124042 461033294 433419607 424893594 437231174 457541410 467360467
1404.4 463852453 467691557 480095238 483748535 483916765 478739349 444737818 401971478
1419.83 399253169 431502361 461084867 474862430 473378576 465934292 464533582 452047957
1435.27 419357037 409912307 446892138 484709647 488239316 472552880 455083366 446620313
1450.7 454893989 448470861 389714039 325300954 340101002 413350253 447770945 435267340
1466.13 444300840 466114680 436783780 376962355 363601744 406591331 455218149 480184981
1481.57 489348677 488892926 463737557 412816087 380820811 400264714 427975515 411398515
1497 379683728 391975160 431036919 420529301 341746187 276171010 298170017 369356689
1512.43 403973540 389976856 364940504 338756933 315779083 316463278 338818369 368450707
1527.87 401939724 416492561 396345712 379387157 378560716 342626017 276503304 258724915
1543.3 307344906 370267309 413883508 428871925 419713531 402088038 362201036 290150798
1558.73 249146286 297390075 388586029 438617872 428048523 403496002 410678520 428861388
1574.16 410901734 385496249 412939053 468139260 491601010 489829492 491379091 491221179
1589.6 483594952 476014742 469536976 464816499 465056455 463866821 456502492 452205509
1605.03 452526401 445237872 437710204 444110577 436753696 393768281 363760088 381605775
1620.46 400315668 390240811 384714835 397522488 415014900 429665359 415069824 361006744
1635.9 325251929 354571744 412754575 434999166 397046189 339667143 323574020 329298934
1651.33 293707350 256929806 306233417 399618543 429401304 401427568 393563244 407651360
1666.76 390597424 350132076 338143916 350520304 351812040 357341239 378756631 365904504
1682.2 305747471 270020119 298612899 349645910 378507514 374268813 340476865 293155829
1697.63 255540986 244373512 262789032 293002601 312929565 325249977 339772401 341356202
1713.06 311229490 263526003 236397766 252042635 291634472 317389896 318900275 313471530
1728.49 303179195 273422493 235795459 225060265 245932341 265528108 266410223 265746498
1743.93 272768301 270394376 253699587 246293997 261884936 283805655 293997786 293246743
1759.36 289664368 289979404 297698310 305755044 300028934 277445800 254767113 254194661
1774.79 276600968 297921497 302182909 298633051 297643293 298947531 301059535 295273029
1790.23 273508597 254883097 262187681 279165774 278930038 269092421 269655799 279100239
1805.66 284305122 279146652 268947337 264194751 264807574 260974746 252931116 247598611
1821.09 241274513 229697474 219048463 211640419 204972836 205088795 214014098 219278024
1836.53 216319711 213270852 207148236 191303309 178431661 181871400 192586974 197611041
1851.96 197607499 196474236 194244119 191095782 188053564 185888478 182652207 173579396
1867.39 161173763 157170994 164807734 172824789 173682261 171436924 169677043 167356375
1882.82 164830061 162386742 157948930 152673821 150677607 151234053 150537170 149117744
1898.26 148974523 148532049 146582579 144533370 142189612 138499164 135732475 135739951
1913.69 135048090 130578059 125623076 123833787 123495142 122726032 122694275 123078002
1929.12 121987991 119833714 117863266 116122697 114426813 111742109 107231299 103414184
1944.56 103049331 104442471 104746077 103872896 102546440 100903466 99250167 97739043
1959.99 96408862 95362934 94036711 92168169 90973339 91128044 91394068 90820006
1975.42 90102930 90151375 91004698 92115116 92879081 93093056 92850418 92159145
1990.86 91439060 91694800 93019355 94085800 94066633 93469273 92751421 91867846
2006.29 91004378 90510074 90440550 90393119 89719146 88537682 87938778 88306835
2021.72 88782380 88875945 88924507 89035559 89003205 88895585 89011347 89511228
2037.15 90212063 90874729 91637321 92609710 93473903 94243545 95558533 97587863
2052.59 99654830 101245489 102487321 103577862 104371668 104691257 104853733 105514332
2068.02 106829409 108271729 109440303 110440699 111441037 112468720 113570292 114777480
2083.45 116021169 117128874 117833473 117968756 117626868 116999178 116344045 116076188
2098.89 116409422 117030198 117508071 117799712 118113606 118532604 118957471 119280990
2114.32 119428619 119275023 118720593 117802911 116583863 115048701 113161443 110870709
2129.75 108149600 105156556 102243050 99751969 97802569 96199580 94644388 93090350
2145.19 91707673 90536161 89434127 88273494 86934941 85335471 83759131 82828924
2160.62 82829132 83442478 84289126 85171080 85851599 86210831 86435006 86687689
2176.05 86941810 87192535 87438232 87604947 87757899 88117526 88740996 89447361
2191.48 90091997 90697781 91287241 91777293 92108946 92352097 92638880 93040287
2206.92 93505267 93974272 94509634 95120021 95615045 95917294 96239689 96733500
2222.35 97344186 98061842 98866459 99551210 100024407 100522984 101214815 101993306
2237.78 102838183 103859301 104949296 105901521 106716839 107436413 108022800 108560366
2253.22 109208197 110037165 111082873 112287012 113449588 114488233 115532580 116737266
2268.65 118243601 120163739 122462506 125002357 127723553 130804188 134525897 138705216
2284.08 142657081 146061669 149118477 151741004 153604473 154790079 155536017 155836688
2299.52 155669392 154951323 153264468 150232299 146069006 141442863 137044259 133379289
2314.95 130243191 126278226 120670490 115455555 113431790 113568309 111833596 106877660
2330.38 101766998 99341246 98271589 95871122 92817594 91077974 90739039 94600277
2345.81 107480561 123109987 125004719 108617311 87363918 72632460 64048504 59110569
2361.25 57764017 59225925 62650046 68354390 76470121 87023048 100255399 115816363
2376.68 133074380 151433097 169499622 185150087 196613113 203272074 205882426 205852415
2392.11 204320797 202110251 199751645 197288515 194654962 192008269 189497100 187218256
2407.55 185322489 183809353 182411388 180858896 179177670 177586136 176128268 174710150
2422.98 173394208 172218813 170997488 169696241 168579381 167718970 166862562 165950735
2438.41 165263549 164905169 164594064 164090291 163493464 163094961 163074140 163265233
2453.85 163360445 163355912 163380145 163282808 162926174 162479267 162061728 161580254
2469.28 160985504 160325715 159657746 159008757 158335171 157647061 157105929 156759007
2484.71 156378032 155809361 155227182 154802880 154433369 154056882 153807046 153597151
2500.14 153144235 152543461 152131319 151870717 151515732 151099594 150789791 150578583
2515.58 150370471 150162455 150013655 149904605 149728758 149456817 149219242 149167162
2531.01 149269972 149300986 149108019 148829673 148704264 148791921 148998149 149191763
2546.44 149268542 149276324 149395557 149653683 149872975 150029771 150333229 150833000
2561.88 151347543 151819990 152356962 152999772 153728823 154531984 155395796 156337232
2577.31 157331190 158261947 159120232 160050641 161133532 162347368 163683944 165170160
2592.74 166833934 168618953 170406694 172223263 174210724 176369641 178573121 180757906
2608.18 183000568 185483917 188271377 191169314 194070896 197180133 200605739 204115430
2623.61 207564525 211199259 215260972 219586096 223908892 228266660 232769993 237370164
2639.04 242151834 247344529 252869031 258393594 263822982 269275755 274723183 279988574
2654.47 284945326 289539683 293724037 297342386 300012439 301368618 301540709 301088870
2669.91 300443491 299733213 299006907 298259845 297412928 296448609 295376534 294134702
2685.34 292774160 291537197 290521104 289550957 288536493 287568949 286596823 285458538
2700.77 284225054 283123080 282218393 281363157 280337675 279103539 277893350 276815618
2716.21 275678951 274461151 273383918 272419395 271351575 270164828 268883160 267433616
2731.64 265952785 264715942 263652430 262435373 261053738 259807196 258771258 257723861
2747.07 256519454 255177055 253762186 252369152 251023311 249643216 248239426 246933833
2762.51 245766500 244705944 243728945 242785996 241829254 240810721 239630774 238278282
2777.94 236886786 235484692 233976322 232424319 230977053 229554357 227935494 226082203
2793.37 224198127 222526247 221081789 219624373 218057979 216673610 215727415 215038974
2808.8 214249749 213241939 212164592 211177981 210275983 209409228 208618987 207868602
2824.24 207012115 206089819 205311388 204689613 203980659 202985080 201742825 200321138
2839.67 198527654 196194017 193505021 190613344 187622685 185231546 184163868 184013743
2855.1 183970361 183965573 184017050 183723048 183057299 182367743 181654649 180847746
2870.54 180142166 179467065 178464856 177191754 176098675 175326615 174550866 173539039
2885.97 172455209 171432701 170298061 169022148 167826177 166606839 165071937 163436241
2901.4 162093459 160887220 159436201 157707598 155843000 153843681 151571980 148978362
2916.83 146434663 144564058 143524062 142922687 142551852 142593867 143006451 143324887
2932.27 143285932 143152396 143180319 143242082 143203893 143156986 143080484 142761738
2947.7 142150587 141379951 140448271 139284454 138080007 137145963 136523797 136079943
2963.13 135686435 135064557 134042220 133042091 132569181 132449661 132266606 131973223
2978.57 131603186 131069915 130378111 129562269 128722668 128179907 127982165 127680607
2994 127245613 127314644 128014032 128681430 129007354 129338555 129878372 130418216
3009.43 130697891 130616461 130208481 129536667 128708658 127949306 127389981 127007668
3024.87 126927970 127196272 127339431 126919686 126113378 125154779 123930055 122465828
3040.3 121101573 120012892 118992399 117817939 116660784 115833997 115203129 114376184
3055.73 113398826 112665112 112266582 111895205 111317670 110697550 110319477 110089637
3071.16 109716051 109303310 109134780 109042261 108701561 108224779 107837649 107466899
3086.6 107084669 106819250 106501177 105830395 105028893 104598542 104532549 104425854
3102.03 104201690 104135499 104281240 104392820 104345916 104209847 104032300 103909015
3117.46 103989904 104153836 104096036 103871120 103867461 104187621 104464184 104398882
3132.9 104273162 104645393 105503866 106179447 106317768 106344483 106676249 107179393
3148.33 107731041 108522720 109484790 110215847 110689635 111281597 112143491 113183441
3163.76 114342375 115488009 116529932 117696232 119136598 120519367 121567964 122550937
3179.2 123739381 124849780 125503915 125836146 126177746 126479136 126487318 126224571
3194.63 125965524 125958469 126290331 126793733 127101338 127015283 126738531 126562992
3210.06 126494585 126371090 126130679 125759819 125207568 124514274 123787887 122978410
3225.49 121946949 120816191 119973750 119566703 119194428 118393121 117302088 116444101
3240.93 115969123 115656340 115490620 115566041 115647018 115514402 115409145 115559978
3256.36 115793547 116019672 116458587 117178297 118015606 118933115 119959176 120937575
3271.79 121706974 122395342 123302341 124526160 125863346 127121241 128351672 129648281
3287.23 130933901 132156944 133450548 134836624 136056717 136973719 137842308 138982752
3302.66 140447378 142040396 143518946 144864908 146298894 147980575 149971271 152298041
3318.09 154700513 156796379 158610149 160245170 161416027 162013195 162281847 162071093
3333.53 161053703 159488921 157555573 154655568 150395658 145358591 140504864 136697174
3348.96 134416765 133132475 131797581 130295825 129233834 128543077 127566335 126096092
3364.39 124469251 123075039 122061346 121324905 120890568 121067529 121974385 123379174
3379.82 125057302 126915021 129094503 131991853 135559931 139048489 142092277 145235838
3395.26 148879802 152596617 155749093 158091836 159666508 160489436 160459872 159543581
3410.69 157889849 155571846 152278618 147498832 141310611 135016638 130291041 127377345
3426.12 125029152 122345521 119490042 116851174 114704348 113164833 111837650 110316180
3441.56 108734719 107018312 104863188 102939995 102152235 101825375 100747322 99124205
3456.99 97681124 96341737 95077872 94325779 94028582 93788192 93582623 93250624
3472.42 92468445 91731994 91644832 91506867 90580548 89714829 89762149 90050817
3487.86 90051943 90350340 90835279 90584528 89976399 89904908 89497528 87990716
3503.29 87074798 87910578 88804457 88752544 89237172 90672650 91512700 91249992
3518.72 90469939 89168616 87574978 86520366 86240235 86806263 88507041 90393730
3534.15 90877616 90332088 90431279 90948629 89794248 86730899 84690334 85500124
3549.59 86857587 86766126 87152030 89061313 89832114 88503812 86827549 83686883
3565.02 77544345 73281522 76498807 83792508 88024911 88518705 88320529 88011357
3580.45 87536925 86543614 82239484 75375644 73112816 77403115 80769696 79741002
3595.89 78939752 80127380 81059042 82034238 82874722 80658780 76127791 73522807
3611.32 73604495 74223860 74181933 72772153 71379564 74167686 79962798 79820989
3626.75 71023076 64098720 67590160 76515115 82845410 86123839 88370570 88936280
3642.19 87381418 83009384 73519749 62478195 60566666 69866191 78924342 81679817
3657.62 84500173 90007872 93576082 94230175 91847587 83737736 74143708 70145980
3673.05 68621197 65966507 68774512 79410014 89327576 93195817 91335755 83382846
3688.48 74226442 73586897 81982540 90771689 94957398 94732298 91528720 89383190
3703.92 91463512 93512061 89068269 80498870 77654184 84801830 94425798 97447993
3719.35 94289988 90402215 87839987 87084092 88729848 89547384 84931170 76034681
3734.78 69913704 73301606 84005630 89234647 82160414 74026164 74834942 76821580
3750.22 74555763 78504288 92128636 102328937 103771708 105852482 111782900 114851694
3765.65 113260081 111185972 111702513 116881056 125076652 128642318 124661471 120707062
3781.08 122395314 126290459 128824369 131380233 135054365 137021085 134076280 127852114
3796.52 121726884 114663909 107371026 106601822 112148511 116254388 121092091 131198422
3811.95 135645662 126618788 115818026 111342288 108163599 108068919 116781186 127682712
3827.38 132028408 131175264 128493595 123636118 116183588 108638561 106822752 113725869
3842.81 124542572 134277602 140980529 137758473 119276623 98070472 95323388 113657217
3858.25 133395975 137837105 131092282 126062587 125387892 123677293 120700534 122536536
3873.68 131634440 141013371 142375615 137658442 133926404 132435912 133154904 137637841
3889.11 141402344 141043164 143370813 149445548 147834301 136301107 126245056 124383018
3904.55 130732976 144178670 158088275 164945985 165102424 160950943 154033817 150382922
3919.98 153314447 156690659 156837019 157915454 160061079 158664183 155815517 157858084
3935.41 164270491 168726183 167761646 163874099 161779688 162438441 162802085 162495729
3950.85 164636913 168809042 171218831 171288630 170968722 170764165 171000747 172325655
3966.28 173701012 173910367 173446095 172950095 172644140 173094640 174196176 174970093
3981.71 175267724 175674321 176028461 175818352 175341122 175217105 175463424 175842080
3997.14 176340060 176780239 176862947 176752285 176712941 176589766 176407738 176591334
4012.58 177110395 177372446 177147705 176861884 176854091 176893310 176794661 176930527
4028.01 177458412 177850169 177849783 177834379 177954389 177999198 177852525 177432157
4043.44 176907775 176918157 177643768 178339052 178503801 178456203 178431902 178286586
4058.88 178105358 178155100 178396068 178621475 178785523 178882182 178862690 178833219
4074.31 178928164 178960231 178710573 178463455 178599032 178878174 178854356 178659551
4089.74 178701704 178983967 179256320 179444280 179567045 179542730 179315919 179034375
4105.18 178945490 179118656 179378839 179567241 179733853 179975110 180209551 180251316
4120.61 180060585 179815555 179734294 179873601 180074536 180109528 179970396 179905535
4136.04 180024167 180135553 180167602 180306263 180563630 180732841 180787013 180818302
4151.47 180777939 180676278 180675821 180769188 180794106 180769723 180814440 180883276
4166.91 180901846 180951013 181096251 181212962 181151779 180963958 180809744 180750128
4182.34 180791977 180949450 181098840 181077057 180987326 181009100 181053787 181027618
4197.77 181049616 181100850 180998573 180801797 180710133 180718521 180735509 180750675
4213.21 180748011 180693546 180587579 180487361 180511370 180662428 180726197 180571053
4228.64 180338599 180204133 180197756 180254013 180285923 180265224 180200742 180068702
4244.07 179920680 179874964 179888796 179866238 179913829 180082033 180118378 179870239
4259.5 179584296 179511491 179567190 179568842 179492445 179385014 179265769 179150577
4274.94 179052146 178988990 178958430 178851807 178603958 178408295 178449746 178551627
4290.37 178439434 178163106 177993314 178041558 178127366 178035724 177831332 177723994
4305.8 177696842 177563200 177299792 177052549 176892384 176752324 176594475 176498282
4321.24 176484266 176406116 176197223 176010156 175926683 175808946 175574264 175311404
4336.67 175073881 174852687 174691499 174564784 174341798 174085434 174024135 174075267
4352.1 173895775 173481034 173160819 173015968 172821355 172504117 172243589 172163073
4367.54 172174181 172110174 171899392 171607361 171353205 171188180 171045581 170835841
4382.97 170566514 170278716 169944912 169583730 169318407 169166573 169019717 168874658
4398.4 168757096 168550333 168210334 167850089 167492067 167140072 166928252 166829721
4413.83 166614682 166255377 165882400 165461720 164958584 164538141 164319675 164192604
4429.27 163987137 163699491 163479593 163345842 163077414 162596694 162156632 161886038
4444.7 161579572 161154338 160796331 160565689 160373255 160210343 159982664 159524023
4460.13 158982089 158606380 158294351 157919011 157587828 157254495 156815379 156458924
4475.57 156215357 155786766 155249859 154976715 154836010 154457548 153936237 153519102
4491 153171121 152831941 152497649 152049355 151479810 151019406 150766246 150546006
4506.43 150196266 149726471 149265848 148914433 148587484 148148614 147641730 147174870
4521.87 146755745 146363821 145963412 145506244 145048102 144654579 144231404 143692263
4537.3 143135459 142668513 142237665 141773060 141353544 141033698 140661387 140156290
4552.73 139715793 139433190 139103537 138590634 137961346 137335285 136880885 136628511
4568.16 136292690 135706191 135113291 134692501 134313832 133915616 133548901 133115310
4583.6 132559899 132083780 131805593 131553928 131160571 130599758 129916207 129285582
4599.03 128835187 128370633 127742808 127195038 126867297 126495921 125938680 125396817
4614.46 124997114 124619084 124128378 123566379 123080942 122671094 122196879 121699339
4629.9 121316744 120936388 120425231 119929154 119497584 118930300 118270525 117789856
4645.33 117455814 117045670 116560369 116072206 115553646 115049938 114636849 114260934
4660.76 113838966 113333586 112745043 112172393 111702216 111256388 110758791 110267373
4676.2 109831101 109442958 109069083 108580503 107880995 107129546 106566814 106197812
4691.63 105850791 105407818 104879558 104380289 103989961 103606986 103138582 102722697
4707.06 102425120 102013499 101411376 100894809 100534201 100058630 99433878 98930166
4722.49 98601636 98254279 97828656 97391214 96925442 96425915 95952197 95438144
4737.93 94797433 94211549 93880657 93655060 93292645 92768787 92159804 91593029
4753.36 91207051 90888751 90397776 89801686 89321090 88918512 88473152 88050714
4768.79 87692681 87279226 86773570 86289850 85846525 85354067 84870695 84556285
4784.23 84372084 84120363 83714321 83167779 82511013 81908702 81563727 81390394
4799.66 81127029 80737035 80327996 79873663 79374595 78978544 78683116 78299762
4815.09 77816332 77398089 77051031 76637757 76149677 75703390 75356879 75085044
4830.53 74837944 74549171 74177004 73726015 73200840 72669082 72283848 72029420
4845.96 71692977 71270845 70967821 70743860 70399767 69976223 69576688 69118225
4861.39 68612227 68259274 68061212 67785008 67383948 67030897 66761826 66477011
4876.82 66175896 65879196 65544307 65214353 64939635 64613403 64198325 63840357
4892.26 63551563 63179261 62738791 62392853 62166818 61940083 61634849 61289973
4907.69 60945266 60537893 60067101 59713679 59536569 59327848 59002979 58719293
4923.12 58510871 58264157 57971847 57686584 57444572 57281246 57093986 56728804
4938.56 56268577 55864131 55490478 55161484 54966481 54834581 54647171 54387296
4953.99 54051122 53708005 53462086 53217954 52879424 52603011 52443418 52183764
4969.42 51769757 51402415 51172060 51015823 50883963 50700138 50410125 50130077
4984.86 49945190 49705664 49333532 48989306 48727712 48483339 48346315 48318416
5000.29 48146745 47782198 47476992 47322176 47158743 46856751 46472601 46183065
5015.72 46010411 45802381 45566697 45365660 45047844 44624138 44396808 44386429
5031.15 44332486 44199604 44061445 43856626 43579593 43282441 42934944 42573639
5046.59 42319839 42174495 42072565 42002548 41878829 41573411 41187419 40956731
5062.02 40868283 40737616 40556016 40372461 40104329 39800543 39644141 39525590
5077.45 39225890 38951750 38969528 39009944 38746774 38372958 38112814 37795377
5092.89 37333886 36979468 36875217 36885006 36861372 36726993 36455795 36158498
5108.32 35961667 35771470 35415205 34974413 34692344 34591270 34463420 34204871
5123.75 33918646 33729003 33629172 33490189 33243323 33003481 32844808 32632569
5139.19 32311223 32051670 31908921 31714284 31433992 31254824 31232971 31176483
5154.62 30957479 30686373 30467659 30223168 29924139 29748418 29773296 29773676
5170.05 29590205 29378747 29245308 29065734 28833857 28656624 28427672 28056986
5185.48 27765104 27716202 27763428 27723504 27509900 27139222 26870108 26962195
5200.92 27144627 26788140 25801653 24942417 24918847 25541735 26101774 26175217
5216.35 25821398 25382471 25078378 24719604 24233987 24062781 24336685 24517279
5231.78 24416303 24398515 24438448 24211467 23852556 23628157 23346669 22791330
5247.22 22292765 22308028 22631557 22652928 22386160 22370969 22521669 22210774
5262.65 21511353 21178659 21432139 21755581 21830532 21876991 22071581 22215566
5278.08 22074064 21673506 21224583 20944921 20843025 20683596 20408837 20313384
5293.52 20503367 20662788 20564716 20300269 19970822 19576009 19193225 19033869
5308.95 19191696 19392025 19293832 18985180 18805539 18857193 18944728 18774861
5324.38 18271442 17775763 17610329 17654404 17649745 17414609 16822547 16174390
5339.81 15996568 16119860 16010696 15864874 16083768 16266397 15957955 15616215
5355.25 15860539 16450349 16690980 16408248 16029317 15900599 15947776 15963993
5370.68 15841467 15531271 15124807 14910160 15045043 15272064 15202489 14825897
5386.11 14537944 14583726 14671258 14426087 14017890 13875392 14022948 14191622
5401.55 14268544 14223394 13965998 13536627 13082773 12657512 12410522 12648506
5416.98 13237312 13538472 13390760 13244961 13090054 12548616 11959725 11882032
5432.41 12014245 11911873 11835580 11981935 12001434 11714700 11364507 11151103
5447.85 11105612 11219926 11417132 11544960 11478993 11217054 10906633 10729290
5463.28 10699966 10700890 10753675 10935245 10996084 10656775 10231067 10187602
5478.71 10383161 10474150 10483220 10408266 10063774 9588181 9375633 9487017
5494.14 9651330 9702722 9669201 9597688 9518076 9439131 9296664 9102754
5509.58 9046270 9156175 9181446 9082461 9089108 9139222 8976597 8721101
5525.01 8631327 8615667 8516754 8390013 8231839 7992222 7817366 7783967
5540.44 7729287 7644197 7676884 7713190 7556100 7309402 7152162 7069539
5555.88 6953559 6731923 6510522 6543211 6814276 6971044 6861355 6686830
5571.31 6589852 6517505 6430074 6331678 6168991 5924385 5735392 5697655
5586.74 5699818 5693649 5792085 5904341 5789106 5523169 5377241 5369939
5602.17 5334204 5178793 4958808 4862653 4994629 5186115 5272603 5305044
5617.61 5264761 5012865 4664636 4516245 4568565 4593961 4588843 4684171
5633.04 4741039 4535394 4224667 4147231 4285842 4361437 4277810 4113801
5648.47 3914650 3748452 3712234 3767576 3796676 3782473 3755041 3692422
5663.91 3602666 3560361 3578586 3566991 3479338 3386759 3347046 3325622
5679.34 3286154 3257447 3299283 3392625 3366547 3132736 2930737 2975089
5694.77 3072225 3008246 2931422 2993632 3041228 2886974 2615159 2492842
5710.21 2598821 2701979 2672082 2661943 2696482 2620688 2487572 2431437
5725.64 2377847 2291347 2303259 2424622 2517480 2490015 2337656 2167119
5741.07 2115769 2128976 2067086 1981280 1970332 1974694 1947196 1943243
5756.5 1971029 2003906 2047228 2056644 1989095 1931208 1958366 1979133
5771.94 1879927 1674081 1479984 1469358 1678478 1838779 1728851 1556844
5787.37 1540516 1493819 1313807 1268688 1435357 1546680 1504641 1437939
5802.8 1408192 1429725 1512610 1598002 1628092 1589763 1510274 1474041
5818.24 1466284 1335051 1173933 1127439 1196945 1243194 1344821 1459891
5833.67 1426235 1184955 1034835 1148682 1263007 1196319 1119008 1138566
5849.1 1123147 1014127 920347 1004795 1133729 1039597 932528 765294
5864.54 712713 802916 890178 886889 957075 1033361 1141021 1131793
5879.97 954419 815519 756797 645949 686960 903176 901422 934844
5895.4 884574 837185 841819 874090 810419 649207 568705 653900
5910.83 720479 727703 542867 508494 727552 808621 678294 691590
5926.27 686381 600136 692549 715762 706376 481727 441319 550986
5941.7 519531 498087 638468 652572 611060 528704 455938 542862
5957.13 550578 513568 488883 509428 593380 672509 620029 524169
5972.57 524543 574940 412017 481844 592997 535307 448780 469988
5988 522667 626752 699411 519881 451942 536258 453174 360396
6003.43 366830 426865 461609 508243 460025 507971 520560 567018
6018.87 670097 719132 745347 532319 542877 643208 585424 539910
6034.3 519448 602853 561329 493530 372859 406004 433853 509127
6049.73 462382 439988 555040 554733 467721 539148 628403 518724
6065.16 437566 430547 406699 395579 441447 481441 545690 601567
6080.6 603714 527108 465303 497290 524663 505649 454769 476209
6096.03 469999 441841 360505 357014 391319 495856 609321 652180
6111.46 624636 625336 567127 545130 496096 429988 483967 499392
6126.9 501459 427100 325104 402934 646896 651795 534787 493641
6142.33 731096 809759 662369 444857 448457 503169 499951 439855
6157.76 480682 553825 550764 451952 411743 394434 368151 368267
6173.2 445321 546980 479662 508065 432091 377370 408388 415025
6188.63 463433 554922 530060 440913 363582 407443 447946 520241
6204.06 619014 682477 702646 652258 530285 363447 320318 372502
6219.49 431075 465007 529489 428501 460709 505473 479308 466214
6234.93 478615 455296 465558 516136 503502 436743 427555 394088
6250.36 324681 386140 434126 548072 557203 476358 461322 469378
6265.79 527759 523555 561455 529348 509477 510936 417915 431978
6281.23 467303 545724 475674 384804 374335 396737 446589 480295
6296.66 578626 595401 637973 466820 387247 305676 326908 487326
6312.09 458950 383731 395381 481918 645579 577672 465492 424921
6327.53 508942 561519 538128 555273 500365 451545 476117 525189
6342.96 645005 684053 561013 395852 531961 554304 539386 449118
6358.39 449004 393951 390418 418070 457112 427501 428769 449210
6373.82 523323 616512 664958 689416 648435 616932 615211 505643
6389.26 409890 464887 635522 542975 436650 495893 635219 593293
6404.69 512635 527352 587481 666835 517618 435699 498570 547058
6420.12 494066 371760 466245 562656 464550 479747 571723 463904
6435.56 430782 490245 454885 420962 495318 547728 483490 510351
6450.99 515800 532111 543503 473479 370842 312785 305465 392900
6466.42 518345 555786 569267 532367 483435 483781 580087 644168
6481.86 727196 651592 498387 479580 567184 674140 680609 522000
6497.29 409860 406161 371987 405776 505269 661265 621400 498312
6512.72 480209 413714 375186 418212 368628 379667 594716 662972
6528.15 651503 549183 527827 558076 606450 492902 471715 549617
6543.59 464317 456913 566724 490405 454335 588267 715233 654229
6559.02 591160 628945 550969 448659 495021 544287 538401 522116
6574.45 529596 483402 368839 411506 496793 432702 369345 426263
6589.89 498753 521164 388484 327395 461500 540946 499594 481634
6605.32 467529 541808 446427 374716 328762 254638 325051 418833
6620.75 506870 520895 484838 495751 523920 494150 387729 323028
6636.19 348187 513377 515965 526029 522282 386578 358653 291233
6651.62 273852 433226 405406 576210 570114 504207 400670 536647
6667.05 716961 730716 660626 580827 363846 427229 482268 434688
6682.48 454316 496957 507157 460758 517607 584596 628954 461708
6697.92 473318 493123 432733 345379 408009 506155 469271 542493
6713.35 558386 518432 390036 419222 467919 524869 409939 419723
6728.78 386502 507273 553709 496494 581252 627207 595615 592857
6744.22 617941 582950 431064 380372 387858 462806 474883 438127
6759.65 434928 408991 368090 428805 454055 514982 444293 370695
6775.08 353159 459024 530583 456781 362884 405420 491536 434496
6790.52 468694 461918 351210 320742 355848 418795 506988 503170
6805.95 613595 666488 566670 479049 540488 511523 421168 465463
6821.38 466928 438841 292259 325073 389428 476157 522867 444813
6836.81 430445 482837 400616 350703 493605 633582 638230 592850
6852.25 514744 507674 432933 466571 394358 398788 384633 446060
6867.68 438324 351693 388010 514638 492193 446935 550787 565025
6883.11 441775 366378 417303 481861 449057 450536 408372 434285
6898.55 544986 570606 501285 425702 629409 768432 745680 617840
6913.98 457373 417611 472903 495952 395345 373713 498474 589324
6929.41 625524 574998 651437 625374 562700 376747 404554 524954
6944.85 514392 504826 587528 592121 462442 414480 387232 425498
6960.28 474358 475232 494384 432298 365691 465677 536581 550304
6975.71 520996 370237 460346 443159 419907 404569 355384 352241
6991.14 425711 460495 503573 567066 506439 448717 516898 467921
7006.58 276015 278195 318207 402211 452515 526242 602431 602851
7022.01 522014 484163 555430 507236 459898 428069 383153 445797
7037.44 419863 371782 386535 402520 491304 563189 531948 417139
7052.88 456959 394242 274297 378683 592118 707688 727964 589640
7068.31 490552 503305 513742 374113 382666 501187 486835 520584
7083.74 517648 525881 542708 453099 444533 378028 421441 420528
7099.17 483714 545540 524362 338871 385472 472292 444425 377955
7114.61 407653 486098 487851 424309 496607 511937 492677 361792
7130.04 438479 450391 445090 382989 339120 345657 471981 551249
7145.47 576221 534003 370852 357337 428841 417957 523304 494412
7160.91 462550 425480 577843 613658 364409 368173 429370 536453
7176.34 567937 421812 479803 517397 548634 423136 259002 305742
7191.77 367262 400654 498651 504267 482923 531729 425448 407857
7207.21 395197 410801 384317 367958 448560 480694 421392 424120
7222.64 404075 431654 474745 456901 356666 408691 380834 392908
7238.07 507492 501922 504352 404122 313864 371831 397242 451922
7253.5 570054 630321 491418 381226 440533 469186 484508 519059
7268.94 640465 638088 568692 606306 577959 495841 350020 364559
7284.37 426190 461897 575612 656793 578004 463881 451474 523949
7299.8 563380 463075 444389 441773 388750 319471 431384 500309
7315.24 581701 622472 594007 467554 441431 536637 626876 548241
7330.67 546640 535623 354990 435246 459974 493446 427075 376803
7346.1 372406 461590 413935 464215 515108 519065 500045 401817
7361.54 315716 315387 369030 387030 447033 505731 493575 419288
7376.97 359113 432508 518164 531755 484199 432507 517839 446361
7392.4 455273 451582 362820 295867 358739 343779 338952 339217
7407.83 332404 339599 466660 613638 616613 528296 522584 404028
7423.27 452296 416288 412016 484802 489839 353131 462067 501640
7438.7 525240 456919 338264 453732 493153 382274 400423 525041
7454.13 455716 419812 493694 516923 471189 518124 558084 468173
7469.57 380080 465245 457154 374841 321312 468564 508097 456158
7485 409123 397783 357077 455693 597278 554090 491842 420310
7500.43 411999 361340 375207 314243 358614 268375 208210 400865
7515.87 432274 360452 453029 452091 363971 280564 397929 581294
7531.3 526978 479631 438404 415524 333970 304397 270402 321620
7546.73 451292 585090 591099 491350 463364 466744 419462 393863
7562.16 420481 510506 455001 411840 426917 385639 320092 374534
7577.6 493679 675052 706227 587555 450933 456386 483601 484438
7593.03 491772 404172 412614 489062 547489 492124 462825 443240
7608.46 486724 449799 443559 454995 421566 381246 546751 516158
7623.9 419458 422257 441093 422209 397001 487948 458534 547502
7639.33 589052 465591 364022 335998 385622 392045 341781 394990
7654.76 386291 438236 444495 401365 529312 630811 468820 413800
7670.2 507991 459132 552039 565720 443894 433304 453883 469814
7685.63 464430 426999 393108 374148 436832 476520 449572 560854
7701.06 563059 517716 456903 402795 405624 363229 339470 385330
7716.49 427946 387649 395307 397473 468255 422996 331268 480805
7731.93 493059 408847 397905 353781 355802 469896 431931 404549
7747.36 448642 628315 668822 575121 354732 245014 247582 448983
7762.79 552977 536092 481012 453949 491743 602894 547344 493121
7778.23 496612 541920 604101 520441 391871 469143 466320 446970
7793.66 398927 440229 431434 486408 474227 452945 408268 471564
7809.09 446897 346532 375137 377112 450967 527908 456365 529952
7824.53 527656 638000 662290 585496 483256 422765 508594 469466
7839.96 454325 413221 440602 476328 508587 537751 521442 478440
7855.39 478764 441353 398256 412393 423169 431255 378476 389731
7870.82 426424 362329 338633 513518 732663 760994 627267 544421
7886.26 483446 406039 301595 259286 333992 404281 438356 449325
7901.69 470908 509562 512745 481141 499347 510627 522987 585134
7917.12 568802 438955 385991 343818 405075 549295 484997 353491
7932.56 280123 346467 431118 505971 445816 357225 410655 444162
7947.99 534507 548252 536533 436533 379801 408633 502191 504421
7963.42 464229 516091 553819 582461 524575 470767 504491 502179
7978.86 494793 608504 716032 760845 707886 602498 490976 564106
7994.29 479734 517498 542988 548268 476743 467651 347288 265233
8009.72 368292 432023 342211 319893 366924 436505 385761 363476
8025.15 456772 478533 468452 472573 541289 561367 480669 441003
8040.59 446185 405341 361949 388959 462578 562476 559375 468390
8056.02 377454 402036 471616 574048 566438 423242 306703 347056
8071.45 346776 433769 393568 514804 669387 620581 456108 289017
8086.89 280864 351075 341814 440351 454371 435001 401782 355105
8102.32 375028 403935 439246 469602 544210 577447 505308 382105
8117.75 283372 250050 342424 526856 600386 556296 481956 491256
8133.19 514181 464898 335383 346525 385956 359608 388788 458597
8148.62 504205 432315 269325 307146 365856 371049 362526 439624
8164.05 484544 449696 450614 484838 456027 427379 392161 467708
8179.48 516726 502340 477563 447548 413734 374904 372014 463818
8194.92 517526 579673 492568 398260 510514 608319 552191 395943
8210.35 427794 503792 489297 476692 448060 411371 450851 419637
8225.78 381002 437147 514092 577980 596917 534807 428903 349257
8241.22 263825 281839 319180 443168 530167 595462 504071 395256
8256.65 408178 453839 570431 500838 483219 389668 404493 465450
8272.08 537097 550951 445760 364155 332671 342082 455019 492221
8287.52 458475 394247 356538 337551 380161 396939 499381 347247
8302.95 264839 348246 408212 342706 269806 347499 473446 470122
8318.38 487031 438933 457722 410265 382160 368161 399332 447999
8333.81 501851 516413 498131 634298 592454 456599 431647 457137
8349.25 422026 425882 452875 463580 424704 466827 508822 535407
8364.68 454989 300090 305002 348279 353100 351776 374142 423146
8380.11 477689 524204 615227 630596 541347 440300 339925 341111
8395.55 492609 532521 495337 466913 413334 295015 306805 459175
8410.98 496851 430949 467787 379242 328416 468712 453645 440976
8426.41 469245 460444 464031 466131 537191 499104 364579 364573
8441.84 318439 330690 407979 461910 498648 447339 440255 419456
8457.28 453217 404145 375759 390915 512369 577434 508430 410067
8472.71 413085 417769 434807 395726 405206 517845 520583 523128
8488.14 596348 606944 509930 409178 342630 278072 289003 306439
8503.58 372268 408596 577133 521278 400132 398821 450181 397342
8519.01 403170 442044 466635 415436 406368 470761 392081 331870
8534.44 383324 350350 435115 526870 514931 465558 308423 349689
8549.88 387021 447888 513675 535579 469862 331700 350109 376717
8565.31 297256 442711 411328 389569 354078 440071 474381 493752
8580.74 446303 511940 506151 459191 408134 392158 374375 392391
8596.17 395557 377193 329745 388944 322543 285878 253314 407996
8611.61 305028 304994 378341 393613 347373 450575 484869 421932
8627.04 424980 473657 420109 443906 424454 386015 454671 480392
8642.47 403881 396208 495871 408784 372872 417177 467835 592167
8657.91 495140 392642 348045 451198 553165 456567 379538 393919
8673.34 393117 456396 499619 409860 368490 297564 369434 462341
8688.77 474990 399943 350119 370720 337107 435366 541276 515507
8704.21 477518 440753 419142 328414 261846 335747 279737 324164
8719.64 278352 330141 435272 470987 398207 323715 395258 378965
8735.07 272872 280092 248645 329588 434008 432781 381963 350857
8750.5 371147 407433 365257 367882 319059 276698 326505 322556
8765.94 295976 285442 399679 536965 488552 395703 566185 535355
8781.37 408984 422689 422667 387601 375997 446064 475533 358563
8796.8 345297 376308 321234 195236 317572 343061 359548 429848
8812.24 434397 397854 374557 422727 439989 463720 449472 441229
8827.67 442190 400465 449006 437273 347790 242226 215547 324242
8843.1 452718 412966 471719 500128 565111 418453 306435 415604
8858.54 496250 499442 485811 466334 436237 472052 399230 369789
8873.97 354969 369117 430826 429400 348860 348903 403256 316374
8889.4 258193 222824 329711 411463 536377 497242 451644 390464
8904.83 395173 259736 357644 413688 443808 394018 462498 587819
8920.27 493489 404743 360218 479862 459497 341439 372312 355728
8935.7 349277 345322 393611 406177 383542 364490 355244 370033
8951.13 396578 410743 403632 270962 283404 482376 596282 510166
8966.57 382591 398871 371489 362263 396820 391145 324766 407843
8982 486359 455221 455148 351222 288212 367893 339664 406442
8997.43 429900 500159 447883 414431 370101 308956 315054 290669
9012.87 336055 425873 334557 226084 345314 370244 433064 413642
9028.3 372703 470692 504323 509382 524944 500594 462254 374885
9043.73 387945 405291 447180 460627 437106 415213 406809 430899
9059.16 396588 349721 381180 505409 542040 528326 448981 503439
9074.6 506146 532103 606341 511126 507150 488311 335904 321584
9090.03 305923 369544 326880 395126 443415 349510 406483 363141
9105.46 312774 422639 469426 526097 459669 411920 376308 573070
9120.9 575199 409872 418454 394971 424524 453316 476701 503336
9136.33 473890 650835 605141 428738 303000 288620 392423 436445
9151.76 386089 412690 382588 456120 481828 441058 416887 418457
9167.2 485071 547375 579133 527026 404666 305315 322991 321390
9182.63 409680 508965 576526 514914 425650 443056 477567 515130
9198.06 477860 362940 436768 521860 463237 356435 341561 449939
9213.49 414408 425904 422021 358706 337898 397008 360446 389251
9228.93 363486 495403 454575 391147 401705 362785 323841 283651
9244.36 300439 300407 353843 407537 391627 337483 473998 590289
9259.79 494027 344931 351121 328555 328444 328336 412362 396504
9275.23 445011 421561 379004 394889 327748 284962 341263 440295
9290.66 480153 385860 380525 460675 537269 521101 403583 415195
9306.09 336667 373095 506128 523167 456315 403306 343012 395855
9321.53 371840 436468 420882 299649 282158 334769 364406 315177
9336.96 277265 391743 541649 638182 612212 484770 349889 308518
9352.39 321209 300974 292706 375485 412900 325826 278050 321754
9367.82 272204 362622 398628 368501 370298 269245 257737 299359
9383.26 352112 462409 491900 463015 459790 472823 371975 365825
9398.69 318452 344182 402966 450435 433260 396121 450781 498207
9414.12 465159 448556 379172 450335 531390 545802 438012 394759
9429.56 356707 339509 337843 334107 348011 291902 253997 279208
9444.99 334154 343951 351366 333001 383739 441384 464287 474799
9460.42 418427 336220 385133 433592 446304 423833 413876 389315
9475.86 332483 408382 483256 490078 436164 493415 616042 584627
9491.29 534626 460067 459082 382485 307092 356633 435725 407341
9506.72 355164 362873 417483 479998 342785 289256 317262 245168
9522.15 266708 273606 314875 319364 350410 509348 503426 394214
9537.59 320065 284816 303741 305902 365689 353071 371136 461933
9553.02 467804 417886 433279 449576 478562 412239 329020 369812
9568.45 477252 497638 398269 342906 333218 354811 426523 472026
9583.89 420007 398834 452269 397901 421215 342580 294636 407018
9599.32 455886 384072 310481 387113 407720 355966 345710 512859
9614.75 582123 462432 378199 418813 438992 389360 375572 355568
9630.19 348836 412617 431458 431698 439969 360874 318915 279123
9645.62 305384 347861 386421 398562 464263 416159 358066 388065
9661.05 339547 261724 280874 295005 261219 299840 425351 416843
9676.48 397666 393184 369822 344790 381723 371147 331614 361860
9691.92 407921 427180 392197 308314 250405 353208 391602 353731
9707.35 375806 424662 448238 450010 413144 310642 356949 387833
9722.78 452972 521496 461737 414953 434978 392516 233023 250163
9738.22 336884 334669 383939 447136 472105 435203 361905 373304
9753.65 401950 383229 389935 356229 407433 483540 446521 344812
9769.08 331157 291614 301021 375462 441077 452773 476827 436540
9784.51 407489 413917 457025 449813 445936 388045 387896 392243
9799.95 421904 438005 387586 334443 275291 170580 319041 453970
9815.38 443131 388576 357400 309860 297320 224668 325349 391469
9830.81 397489 389212 298032 336130 437521 466728 368219 323975
9846.25 355502 328923 288536 260994 316417 399417 442183 407277
9861.68 355988 336220 254278 248019 272765 346945 432823 439520
9877.11 470890 431159 383585 411004 374346 311668 262948 337147
9892.55 327353 294002 320116 268504 256507 392209 420329 318639
9907.98 298018 322490 300415 288599 354116 351396 285355 260574
9923.41 303032 354788 412308 421189 387987 375156 389365 459255
9938.84 473847 414250 410189 388566 405754 371122 318871 289517
9954.28 341656 345902 369580 391519 375881 431848 311538 282875
9969.71 326974 317139 414912 467222 379795 322203 343316 283734
9985.14 294446 418326 440802 409962 406772 451338 443671 381307
10000.6 382203 344938 348007 339598 445361 459681 350431 290159
10016 343242 374883 409786 330067 261774 273991 297484 383144
10031.4 396543 450293 434259 392558 330087 335013 312195 329379
10046.9 320525 256732 339621 370220 270447 254120 210896 323080
10062.3 437468 417527 438375 518832 548281 515780 366717 292843
10077.7 249163 315124 417297 382072 427660 474730 399786 218787
10093.2 295307 362091 429625 334286 294103 278581 253006 315539
10108.6 316101 256294 279306 307354 307841 315912 381724 463505
10124 440437 352073 231943 242783 277626 272359 267238 337284
10139.5 366967 296833 288479 322028 277331 262081 228492 274666
10154.9 339763 273626 260315 274232 325610 346414 298066 339587
10170.3 354317 387444 260089 190634 288369 359984 461954 420517
10185.8 343096 286419 258119 280447 347699 382245 407944 334048
10201.2 398529 416215 347760 365012 352555 386964 441220 416950
10216.6 375812 338479 333319 362431 364264 312533 371719 423138
10232.1 352974 374964 352199 316982 325903 275069 300854 304252
10247.5 282214 348703 346369 375207 417820 336679 301448 302128
10262.9 249011 302246 438728 421792 488311 533381 528180 502530
10278.4 406390 284934 243185 341657 349450 350513 411396 362458
10293.8 354615 373736 451794 386530 329879 333903 370005 297068
10309.2 282834 365532 408843 372260 322138 335673 313978 323414
10324.7 431006 468395 365834 341243 353263 375485 417234 482016
10340.1 450165 444947 470535 399497 261436 321182 394797 380617
10355.5 281355 167494 273684 331599 325209 312001 439589 464889
10371 446429 411250 294247 183889 301781 438148 457822 410028
10386.4 379058 409128 427968 271928 234883 272520 263661 250904
10401.8 261597 360544 396043 365902 344821 315935 341738 460609
10417.3 434104 343946 445809 425676 370629 323648 371639 398113
10432.7 436787 422882 389492 419281 370557 354738 345083 378516
10448.1 354383 274940 407680 372423 349424 438517 459799 365250
10463.6 335741 348110 304207 324350 369495 274572 201894 251761
10479 246610 301227 315656 465859 502374 518420 433634 415957
10494.4 299336 231689 241525 299789 329448 407072 407681 334331
10509.9 292930 441941 464520 369548 334488 273907 306717 369388
10525.3 436342 466300 429751 360451 337890 347813 372458 337609
10540.7 319834 298397 305950 347227 410533 524312 536144 475394
10556.2 474225 438841 380718 433562 497029 403907 308861 168714
10571.6 184611 311862 362795 420062 295564 356128 468617 494009
10587 465422 391749 385097 424969 368488 394575 410887 391637
10602.5 442061 426674 338986 340225 311727 331033 386925 433615
10617.9 427985 473777 436853 374765 338070 403532 324520 295184
10633.3 272459 337025 432917 509195 482583 391176 354609 341779
10648.8 331979 357074 311574 340855 390682 405425 378348 301841
10664.2 387446 440664 425194 372095 426716 461354 385515 352977
10679.6 372305 355505 210107 284271 326220 286046 295843 405321
10695.1 378788 343952 345339 356818 373552 389849 486182 447031
10710.5 427244 278530 247040 257179 324595 453871 409012 298401
10725.9 350804 380862 410533 416669 457556 411094 374464 404092
10741.4 310480 264196 310085 268549 314982 365043 302393 365622
10756.8 400126 376214 319810 289386 293716 348292 358021 392316
10772.2 321542 300693 360894 386878 345783 303507 246305 311104
10787.7 414603 401174 434556 473701 487275 558784 531933 436567
10803.1 458856 449553 322048 291217 287978 263087 343491 386729
10818.5 382784 389736 404894 356607 381312 388306 426799 426051
10834 395622 311771 350357 402838 390734 519135 570869 470295
10849.4 315664 217979 205092 317740 359931 336716 366255 365742
10864.8 392977 371392 280027 329994 303603 347497 329189 302470
10880.3 312920 378285 381251 328821 293564 307424 341907 312380
10895.7 306857 322696 336822 295845 317259 336148 251276 269813
10911.1 316644 275111 309388 316316 354137 413276 408960 404046
10926.6 380514 386626 331189 319452 297114 341636 361317 370896
10942 392517 399684 406126 434838 360855 466204 554440 495196
10957.4 357389 276478 251735 251672 309382 284357 269484 353171
10972.9 328954 268702 234896 324046 436385 518951 450614 374561
10988.3 420585 302026 230562 293324 432056 423271 316852 311130
11003.7 414290 536201 494351 375023 301276 269106 318796 331549
11019.2 282222 336098 430507 415108 358693 477772 570284 452087
11034.6 469331 441041 310073 238382 332035 414340 332148 313907
11050 286425 311417 344221 338775 300666 238452 217979 268958
11065.5 226290 245643 293906 254714 227856 331157 462289 438988
11080.9 421691 431269 388971 317284 290841 335293 416108 431401
11096.3 425473 348228 311704 288859 249539 298993 348677 299652
11111.8 283652 345972 413677 344519 266776 255601 299878 284199
11127.2 313981 265300 286183 284986 290698 286300 356108 426286
11142.6 500839 489299 392397 329793 320796 359305 381239 348798
11158.1 333828 342039 323829 311002 300885 378800 402055 373887
11173.5 378333 401001 422142 321474 315707 345637 360025 338362
11188.9 260973 302216 367433 383451 388732 418185 432487 426335
11204.3 386603 308080 287220 349087 369107 320494 306322 356007
11219.8 370330 293350 313528 373579 341884 372009 348669 302870
11235.2 385859 431789 396606 390700 350086 302986 328665 301115
11250.6 255629 286571 303855 316150 363595 361090 314086 286385
11266.1 344961 395787 407491 448728 408192 346121 301399 252746
11281.5 288263 351950 268858 252834 308451 338304 275001 340730
11296.9 396431 419257 385136 461394 417769 313184 295189 335278
11312.4 344402 308616 426755 532942 430304 419262 405877 357185
11327.8 382821 377446 390435 350029 372965 389081 379656 367455
11343.2 468407 443189 386071 353327 405594 404029 382167 392891
11358.7 324986 201635 232537 250725 342752 342767 377440 341857
11374.1 343693 362795 409776 379199 355578 368336 362430 360698
11389.5 377422 310910 258142 328342 325280 294620 241230 263093
11405 319406 335161 399079 395724 420762 378389 391358 420538
11420.4 371792 343263 327537 268651 225423 344897 444286 436754
11435.8 448960 411364 272805 256814 310307 401642 391881 376842
11451.3 303794 339771 347288 388534 415277 457489 456469 394275
11466.7 392689 444045 395934 367972 369368 400647 401602 431229
11482.1 464228 400220 299780 293121 297981 352404 353060 410505
11497.6 394777 328064 296923 368184 374257 358607 379671 399558
11513 444753 348302 246277 281068 253121 271684 309008 276396
11528.4 200184 228121 287341 226513 317448 402725 351804 322468
11543.9 309798 379816 382600 282681 246210 211760 243703 242659
11559.3 280403 363784 423366 377225 336524 377963 366612 276211
11574.7 301897 411363 472616 421463 324332 232534 320620 431517
11590.2 412620 409792 397000 479956 487395 344171 321855 349715
11605.6 345379 263070 273447 308570 278826 268391 254572 321978
11621 435488 393584 352058 309203 374545 458593 427395 401285
11636.5 411964 375061 450618 425152 397700 436542 400605 311826
11651.9 270977 271394 270861 235959 234314 287562 357340 483482
11667.3 482035 366297 332982 229814 318014 320778 392977 452686
11682.8 429925 408123 310082 291238 254590 305905 379180 419283
11698.2 438913 377871 278795 251079 214607 256664 314972 346118
11713.6 333290 270022 248425 328528 316587 344337 353789 278039
11729.1 218209 220327 261839 341725 430963 418111 322933 262678
11744.5 212748 266826 326003 326719 274671 332597 329931 385149
11759.9 341979 281151 276122 335476 387511 448575 471027 419645
11775.4 310205 285895 347901 338315 344759 378916 304807 294838
11790.8 320804 366227 330651 299793 361502 388241 333644 342473
11806.2 303182 329770 390580 396721 361477 357573 354396 303017
11821.7 269700 289089 320797 369151 310066 381602 353405 333328
11837.1 304293 309598 360434 423591 487292 419116 318528 258324
11852.5 238613 260245 288493 352802 309553 310579 346492 365092
11868 326037 327274 288855 253242 239726 205474 248608 253055
11883.4 249762 356131 499651 489867 397504 313856 314014 306821
11898.8 282091 359281 396612 421902 413281 324065 261979 360399
11914.3 378347 347474 242733 289899 432098 439760 399691 368648
11929.7 255881 281741 353859 453099 389428 346942 261435 308255
11945.1 310370 367554 471430 418729 405492 461813 328773 229215
11960.6 326230 321085 244085 227767 302157 387761 360996 297380
11976 309156 317924 339642 346208 331611 279985 283025 371002
11991.4 338157 252756 244798 306425 291793 323694 342564 308578
12006.9 227331 276125 265551 238959 268421 277620 234845 225904
12022.3 334820 393121 391463 388150 355068 297295 318029 313137
12037.7 234535 173876 215909 303068 314429 273545 207753 261723
12053.2 347031 435204 481679 415929 331436 256405 228741 247170
12068.6 251644 350626 434706 394095 321665 326160 392614 345049
12084 311167 320763 305938 320330 375852 364772 274557 266062
12099.5 226176 201461 285483 406255 396956 442564 491317 468123
12114.9 427466 368552 303230 250972 211155 234122 246116 263175
12130.3 286377 323513 388831 361853 359794 355586 452172 402079
12145.8 361309 359775 298767 332235 358505 316801 275053 225260
12161.2 240662 241349 236703 288063 316346 334904 417459 392967
12176.6 342124 253838 246277 275626 293143 368504 487507 439557
12192.1 301204 275844 250462 211687 269639 334570 264657 230564
12207.5 317441 434720 434045 344411 328248 377623 363004 363995
12222.9 260760 215246 256371 282498 323048 318761 388048 387898
12238.4 345762 309427 278011 273785 259298 311673 355863 290242
12253.8 316875 368283 316082 245413 257058 261860 267128 354943
12269.2 394142 417780 362502 277971 364307 315800 282240 293221
12284.7 266612 337278 389441 328976 327667 367121 309897 277879
12300.1 297373 291123 212504 202270 230782 253599 318547 324822
12315.5 316942 291352 291439 353442 343984 303387 380419 395139
12331 426022 369039 290626 265528 294823 271015 232919 261725
12346.4 279720 298247 331163 309335 297386 415936 420830 381785
12361.8 349756 315468 308266 293803 374227 451173 443928 359486
12377.3 352174 345070 231561 231524 264012 366887 478803 443117
12392.7 370561 241077 266176 288181 328309 389213 445023 350963
12408.1 332578 355278 358422 337653 322821 308267 352207 296224
12423.6 277477 294112 318036 431560 458071 382526 273820 241074
12439 286914 357735 300548 246747 250478 200854 211165 179227
12454.4 235127 291785 260557 300068 354446 349252 304512 364821
12469.9 369977 277808 293084 271099 352016 383159 337997 219156
12485.3 290352 320499 336847 390951 439792 459555 457973 421761
12500.7 376056 333458 270504 283077 289139 246881 221859 212267
12516.2 241239 239846 323617 361437 366296 362042 374397 345912
12531.6 242604 205284 252998 281618 342464 391215 362866 364719
12547 455431 408150 328219 414894 396067 369691 410878 380096
12562.5 336938 265398 289894 325842 344853 345988 355223 359150
12577.9 329380 288419 216060 206562 243904 353342 335475 307739
12593.3 348552 276667 235363 243572 220433 234073 272214 240607
12608.8 276276 301642 250505 234609 309141 350474 324122 322340
12624.2 313787 276165 309640 381079 475939 458410 284320 177567
12639.6 180494 250064 425299 428577 439176 440048 429081 319215
12655.1 337656 321026 257755 322266 326200 353336 337104 249320
12670.5 227185 313418 295903 230384 260844 339858 319483 302557
12685.9 342955 339456 409654 466623 479782 446122 378507 339800
12701.3 360344 373666 390499 385404 380917 340197 319736 323895
12716.8 286656 338919 347405 328922 316624 332889 326113 304720
12732.2 297292 296234 279216 294575 279911 304977 326119 373601
12747.6 442977 397625 367308 319526 343073 342375 323982 300300
12763.1 247957 268915 325957 265964 291109 330038 364212 330243
12778.5 308909 369359 320882 220216 232467 280074 375772 301993
12793.9 270153 328226 301083 266748 309756 261685 247962 281239
12809.4 287226 340767 342525 322568 317363 250699 197564 273668
12824.8 301583 334331 334660 317601 275680 303966 372687 363952
12840.2 403860 358180 290986 315549 364523 310477 322527 326643
12855.7 299777 270054 284128 304238 363397 322533 278732 294164
12871.1 349898 347342 362928 280180 312346 319537 357178 335770
12886.5 355046 401331 370156 383959 401549 353065 361129 372027
12902 303164 260900 310930 292417 293101 334123 327657 273136
12917.4 279958 289345 329111 371681 331190 274395 225479 271721
12932.8 281851 254104 327522 438561 360659 298651 253979 297623
12948.3 375796 378922 369856 274188 306580 341415 317401 345956
12963.7 331781 326858 367717 285018 201195 255101 306928 309052
12979.1 265709 308447 352719 337217 345888 321846 282734 385521
12994.6 362742 322219 309390 277933 279432 285797 264570 201315
13010 297524 339179 281104 258424 328647 330248 273328 289435
13025.4 288609 291239 309295 308726 270586 210684 202192 240343
13040.9 239649 204482 205483 299249 320223 316530 322119 260033
13056.3 246366 321440 356672 349619 275515 238600 197472 269576
13071.7 417559 409076 347227 353756 320847 222015 190818 223310
13087.2 255565 299300 290515 361295 318485 259642 299095 326509
13102.6 277441 268589 244280 206128 272209 344267 411439 371232
13118 210344 200437 305574 386199 402662 407446 397647 399593
13133.5 427689 405223 344698 318932 311450 382657 384385 367146
13148.9 276316 257572 287288 247139 235352 285694 317655 301836
13164.3 306607 352240 407552 506309 513569 459880 421097 399471
13179.8 357973 353746 362103 328330 327593 330380 351360 350758
13195.2 321884 253952 250025 279792 344830 345039 357447 344494
13210.6 353435 304373 319728 295772 314210 402929 441628 375699
13226.1 293864 312339 313243 269429 196191 237031 287072 249173
13241.5 345592 449581 488011 423241 320548 305213 304013 214833
13256.9 177180 270204 252693 270322 331167 399103 418938 350717
13272.4 248832 246994 277722 211210 206113 268692 255645 268549
13287.8 304085 338348 367314 382446 335721 342014 375202 321340
13303.2 340994 383588 350563 349158 372848 414326 417483 351113
13318.7 320134 349691 392364 408501 392218 396987 363774 355067
13334.1 334322 309802 353313 400337 412810 403035 322326 339740
13349.5 335925 315015 289483 191681 239163 278813 281944 310150
13365 286939 262163 303887 341409 342156 329441 291899 229158
13380.4 277720 249609 286448 263565 293303 357612 331491 305352
13395.8 296460 239869 324769 298833 298766 280692 296816 415816
13411.3 349779 330373 343396 364357 362150 407553 348093 277173
13426.7 269540 263418 288001 254539 260753 342173 399904 343944
13442.1 359998 340342 267338 266253 266512 251423 236626 298151
13457.6 313268 306550 306962 274764 219737 213607 275289 262087
13473 283648 220413 181647 283105 321783 335337 339532 351684
13488.4 343992 293507 239328 230096 299668 270915 255425 305615
13503.9 312251 263158 273189 252271 295310 386212 377704 417688
13519.3 416524 357553 298866 246250 329393 362499 327591 347924
13534.7 340201 314332 327432 355282 389205 376508 375521 409795
13550.2 349928 262984 300540 295010 336311 336973 346123 297227
13565.6 338471 332794 325877 281083 290337 349114 354820 380261
13581 368819 279911 279288 302918 352552 377906 276359 320737
13596.5 283369 188370 247475 241560 295347 320927 350928 366315
13611.9 357005 331002 288561 372452 424111 430232 398860 312048
13627.3 267182 308250 342588 320079 325872 300403 282928 305437
13642.8 395533 467842 385398 302458 305768 283417 324420 343778
13658.2 327459 320017 302871 267757 306513 311530 318931 382155
13673.6 378071 315658 330595 319507 301326 320411 277789 252285
13689.1 208090 305035 356025 350985 276069 273789 325462 269440
13704.5 200529 279186 296470 271839 218834 200654 247389 280988
13719.9 268346 295249 348001 269015 232663 204414 267418 321066
13735.4 295856 305427 300152 298622 300472 213423 225674 245268
13750.8 309628 393519 319077 262773 267690 275764 313688 260818
13766.2 176527 277572 412529 439521 328880 315453 279268 211216
13781.7 293470 240023 258386 365554 383569 368597 287218 267063
13797.1 256683 301307 269571 246623 256986 339589 282222 326612
13812.5 399296 347514 221780 261189 258392 251079 246564 258282
13828 325259 287835 258274 275387 238975 251117 239156 239506
13843.4 192433 271693 332565 355691 344553 357265 364556 387754
13858.8 394781 386215 294505 228605 235369 274101 271926 278063
13874.3 271242 329173 432416 413712 266334 265078 301288 251627
13889.7 318132 367285 333540 353590 397414 412430 344301 292415
13905.1 215500 181808 251302 301208 310519 284406 272220 276526
13920.6 316242 285953 327973 286335 256052 248003 324694 407403
13936 426273 377903 351995 299263 249985 284240 333638 388393
13951.4 368719 343150 349229 275436 243487 263835 252742 238775
13966.9 264969 307850 377633 413591 397133 341241 360713 291815
13982.3 277557 261581 261607 248402 323866 393333 398035 310121
13997.7 245969 373262 416006 419374 357076 258589 318781 316642
14013.2 261696 270181 295707 224246 205332 242981 246526 271235
14028.6 312988 364270 319756 311174 337653 302755 272409 284344
14044 275044 265872 302859 329222 346019 322922 262589 200566
14059.5 249566 336384 385319 314545 333521 319790 262075 282003
14074.9 281017 221257 231406 283504 305451 315524 335483 289294
14090.3 314483 301805 292997 216842 191801 282716 302130 248493
14105.8 234934 258848 288691 358184 310997 314692 265290 293592
14121.2 296521 287214 348489 337112 286991 298355 333582 279573
14136.6 351739 334046 241432 220419 315181 340668 289642 264846
14152.1 228264 307212 301843 291027 327925 276575 183514 200521
14167.5 232516 247659 327277 348941 315238 332676 267712 224807
14182.9 223247 249201 261626 291026 326835 305020 274461 279705
14198.3 323244 290651 320628 316966 358922 342213 307545 298671
14213.8 328989 370069 382247 374701 337784 288704 287770 343917
14229.2 399527 340369 269254 249292 277934 250061 226134 243815
14244.6 292480 267113 271395 285202 356128 395367 306294 205417
14260.1 183930 285895 308151 271333 328817 425971 376872 297595
14275.5 353132 310570 225085 214765 296331 317400 312775 360837
14290.9 334637 280857 309194 311918 304059 312465 327756 300905
14306.4 296502 330609 394691 326649 256852 261884 248497 267420
14321.8 257354 215059 325963 365547 362518 338376 385076 389686
14337.2 385830 360113 279260 294250 276091 337626 384019 302123
14352.7 218636 236284 216668 225014 289627 309740 323090 335356
14368.1 339015 407913 372021 284384 301127 294231 300664 307468
14383.5 366338 385630 372917 302296 269752 289749 345573 344790
14399 290936 267553 206593 225528 274014 310012 274183 312095
14414.4 359744 465655 339199 335183 292157 253131 271855 231352
14429.8 193314 250234 270754 299612 414612 442299 416388 375644
14445.3 347888 267675 227937 263886 304532 369806 305428 286104
14460.7 257311 293870 301044 296610 277548 329096 308298 343650
14476.1 365050 426187 396253 314987 371493 396967 395926 334486
14491.6 213764 174161 251465 294238 322770 380657 332801 369815
14507 393793 434001 394188 336671 308090 257453 286929 330238
14522.4 294037 383008 400978 394366 371040 345350 299101 282543
14537.9 281764 272086 367604 393089 354584 304337 244142 199691
14553.3 205694 251338 309915 317166 236527 206454 187362 244285
14568.7 285290 309507 358169 346221 282894 302648 221253 190449
14584.2 262128 364823 318514 269347 271027 303103 302784 243094
14599.6 199743 172057 193299 278458 325789 318287 349568 414534
14615 374947 358843 261486 306430 284469 286355 285689 286317
14630.5 280767 320181 330548 249131 265176 331843 361163 275944
14645.9 241359 224006 204328 247593 269215 298430 310279 305241
14661.3 285990 294668 334738 383230 381044 304734 256438 264974
14676.8 228428 350834 318909 332125 308399 312256 342969 354058
14692.2 313714 343618 382303 358225 280984 300853 317373 265266
14707.6 293710 225857 248997 342345 365506 312085 291419 245757
14723.1 194642 217677 280582 289620 319853 383082 374092 340223
14738.5 284453 212705 200311 275978 293455 279189 284350 254890
14753.9 259577 321625 397375 327959 275502 245363 205617 192372
14769.4 234855 194503 227431 238890 197349 231875 294218 326463
14784.8 317473 351798 337311 238799 182196 256882 296017 361471
14800.2 321463 287256 249314 239995 318333 395427 340985 322579
14815.7 288414 248778 280837 299953 299790 285193 199522 196008
14831.1 179645 219380 344235 409876 439266 406413 329961 328427
14846.5 261243 195490 265058 295771 314228 369120 404554 420777
14862 334634 265820 281682 278967 248598 221748 267985 286798
14877.4 330980 330633 301633 293721 324893 297386 300290 269340
14892.8 277612 262687 342866 337230 344331 347073 432987 424324
14908.3 377730 328683 393438 415220 316933 291756 342041 339717
14923.7 338285 359531 348828 333695 314348 257327 215236 300213
14939.1 371418 348271 273711 316923 353551 344852 333949 303053
14954.6 281025 171965 136874 212777 287217 251757 340965 503165
14970 545990 450315 293352 279424 244449 157644 184714 255502
14985.4 212518 253757 322720 309019 184641 195335 323811 352385
15000.9 346942 257462 265134 256780 260702 302711 407637 406538
15016.3 369298 362705 288271 222158 258618 216516 200422 177612
15031.7 225850 350244 359529 308413 342667 325161 318081 330616
15047.2 373119 324472 306724 334394 326846 274432 224975 202718
15062.6 262070 286931 296746 243655 161486 242621 257851 277677
15078 316294 345747 342393 321871 312072 370920 312680 326744
15093.5 317652 318280 327664 293419 305479 303621 272745 282553
15108.9 379420 386736 370821 321283 299652 314624 373428 339744
15124.3 341262 337964 326425 306082 301009 385800 399031 292769
15139.8 260986 209619 180035 198349 216037 283215 350063 353816
15155.2 324355 342429 300159 310636 342342 341024 324693 329365
15170.6 339508 353517 246045 264314 265818 291806 217024 224460
15186.1 276705 350681 326422 296613 285862 291772 192236 222981
15201.5 309420 262666 325375 317654 248336 230517 246844 284627
15216.9 250488 220783 351336 395602 376305 346051 299952 220065
15232.4 178562 226705 280429 230501 262468 237930 235992 177754
15247.8 197127 249089 306181 334777 344467 265445 274241 280933
15263.2 297276 304142 276155 236131 189229 206268 276622 286135
15278.7 311357 424575 439803 384134 305571 232370 216429 205236
15294.1 190042 271217 326552 307042 382577 417340 332511 277264
15309.5 273155 307457 289516 313399 283880 208368 176346 209187
15325 192887 299842 334662 258941 310295 321562 262564 223939
15340.4 272482 272956 241510 208417 170857 191138 282402 334953
15355.8 291261 223011 242212 260029 266991 246653 253874 273569
15371.3 270803 266912 260855 252645 255809 257363 273451 300947
15386.7 285024 291982 300615 260678 288996 296683 271597 220565
15402.1 215793 255594 256880 287837 353370 394100 402849 309581
15417.6 266988 241511 177708 203519 225848 256253 308015 288351
15433 255515 262846 290327 304608 297034 284131 348656 301144
15448.4 268155 283985 341798 336587 336424 328268 312212 244904
15463.9 202488 196319 231125 284764 312836 293618 235914 231953
15479.3 251240 222369 234279 265336 329344 345866 331015 352966
15494.7 355718 306679 262193 235135 204473 239857 296688 286667
15510.2 267850 256049 356114 366587 313552 245642 269250 242349
15525.6 207106 166500 234453 286536 334234 255850 285870 308063
15541 240858 295886 305944 298010 254186 226483 224760 306722
15556.5 415306 315720 278383 310445 300690 286517 316159 316668
15571.9 338868 329053 240215 212439 305868 325689 308112 320102
15587.3 292016 328128 358918 314041 257443 262412 254090 214640
15602.8 158877 227706 290994 292049 268395 309159 339048 388887
15618.2 329450 298875 302017 259863 209380 245736 262143 234339
15633.6 267771 328932 383568 359899 320118 267344 263593 296020
15649.1 305383 196221 174622 345971 441679 399048 335225 292388
15664.5 285910 303792 289354 324685 349007 258658 285290 293184
15679.9 311085 239018 279360 353836 318572 261880 281813 283364
15695.3 315496 332223 352979 325827 355192 347190 322920 328479
15710.8 334692 315680 375953 391075 324174 260649 251146 203837
15726.2 216097 233420 320402 368419 392011 277029 191706 226641
15741.6 341676 371993 303742 304309 300479 352018 343313 332249
15757.1 372886 298139 312019 282716 361670 332037 302538 342590
15772.5 244878 221702 227813 247786 272853 312007 362307 352451
15787.9 275042 270278 226817 155876 208952 246216 402364 539083
##END=
