,time,Viscosity,Viscosity_mark,Temperature,Temperature_mark
0,0.0,115.5,,26.4,inner_processor_check
1,1.0,115.9,,26.4,inner_processor_check
2,2.0,115.5,,26.4,inner_processor_check
3,3.0,115.6,,26.3,
4,4.0,115.8,,26.4,inner_processor_check
5,5.0,115.3,,26.4,inner_processor_check
6,6.0,115.3,,26.4,inner_processor_check
7,7.0,115.5,,26.4,inner_processor_check
8,8.0,115.6,,26.4,inner_processor_check
9,9.0,115.3,,26.4,inner_processor_check
10,10.0,115.5,,26.4,processor_sweep
11,11.0,115.6,,26.4,inner_processor_check
12,12.0,115.0,,26.4,inner_processor_check
13,13.0,115.0,,26.4,inner_processor_check
14,14.0,115.3,,26.4,inner_processor_check
15,15.0,114.9,,26.4,inner_processor_check
16,16.0,115.0,,26.4,inner_processor_check
17,17.0,115.3,,26.4,inner_processor_check
18,18.0,115.0,,26.4,inner_processor_check
19,19.0,114.9,,26.4,inner_processor_check
20,20.0,115.2,,26.4,inner_processor_check
21,21.0,114.7,processor_sweep,26.4,inner_processor_check
22,22.0,116.0,,26.4,inner_processor_check
23,23.0,115.2,,26.4,inner_processor_check
24,24.0,114.7,,26.4,inner_processor_check
25,25.0,114.9,,26.4,
26,26.0,115.0,,26.4,inner_processor_check
27,27.0,114.6,,26.4,inner_processor_check
28,28.0,114.3,processor_sweep,26.4,
29,29.0,114.9,,26.4,inner_processor_check
30,30.0,114.4,,26.4,inner_processor_check
31,31.0,114.0,,26.4,inner_processor_check
32,32.0,114.9,,26.4,inner_processor_check
33,33.0,114.3,inner_processor_check,26.5,
34,34.0,114.4,,26.4,
35,35.0,114.6,,26.4,inner_processor_check
36,36.0,,error,26.4,processor_sweep
37,37.0,114.4,inner_processor_check,26.5,
38,38.0,114.6,,26.5,
39,39.0,114.0,,26.5,
40,40.0,114.1,,26.5,
41,41.0,114.3,,26.5,
42,42.0,114.0,,26.5,
43,43.0,114.1,,26.5,
44,44.0,114.3,,26.5,
45,45.0,113.8,,26.5,
46,46.0,114.0,,26.5,
47,47.0,114.1,,26.5,
48,48.0,113.5,,26.5,
49,49.0,113.8,,26.5,
50,50.0,114.0,,26.5,
51,51.0,113.7,,26.5,
52,52.0,113.8,,26.5,
53,53.0,114.1,,26.5,
54,54.0,113.5,,26.5,
55,55.0,113.8,,26.5,
56,56.0,114.0,,26.5,
57,57.0,113.5,,26.5,
58,58.0,113.7,,26.5,
59,59.0,113.8,,26.5,
60,60.0,113.6,inner_processor_check,26.5,
61,61.0,113.3,inner_processor_check,26.5,
62,62.0,113.8,,26.5,
63,63.0,113.4,,26.5,
64,64.0,113.7,,26.5,
65,65.0,113.8,,26.5,
66,66.0,113.4,,26.5,
67,67.0,113.5,,26.5,
68,68.0,113.7,,26.5,
69,69.0,113.4,,26.5,
70,70.0,113.4,,26.5,
71,71.0,113.7,,26.5,
72,72.0,113.2,,26.5,
73,73.0,113.4,,26.5,
74,74.0,113.5,,26.5,
75,75.0,113.1,,26.5,
76,76.0,113.4,,26.5,
77,77.0,113.0,,26.5,
78,78.0,113.1,,26.5,
79,79.0,113.4,,26.5,
80,80.0,113.5,,26.5,
81,81.0,112.9,,26.5,
82,82.0,113.2,,26.5,
83,83.0,113.5,,26.5,
84,84.0,112.9,,26.5,
85,85.0,113.2,,26.5,
86,86.0,113.4,,26.5,
87,87.0,112.8,,26.5,
88,88.0,113.1,inner_processor_check,26.5,
89,89.0,113.2,,26.5,
90,90.0,112.8,,26.5,
91,91.0,113.1,,26.5,
92,92.0,113.2,,26.5,
93,93.0,112.8,,26.5,
94,94.0,113.8,inner_processor_check,26.5,
95,95.0,113.2,,26.5,
96,96.0,112.6,,26.5,
97,97.0,112.9,,26.5,
98,98.0,113.2,,26.5,
99,99.0,112.8,,26.5,
100,100.0,112.9,,26.5,
101,101.0,113.1,,26.5,
102,102.0,112.6,,26.5,
103,103.0,112.9,,26.5,
104,104.0,113.1,,26.5,
105,105.0,112.6,,26.5,
106,106.0,112.9,,26.5,
107,107.0,113.1,,26.5,
108,108.0,112.5,,26.5,
109,109.0,112.8,,26.5,
110,110.0,113.1,,26.5,
111,111.0,112.5,,26.5,
112,112.0,112.8,,26.5,
113,113.0,112.9,,26.5,
114,114.0,112.5,,26.5,
115,115.0,112.8,,26.5,
116,116.0,112.9,,26.5,
117,117.0,112.5,,26.5,
118,118.0,112.8,,26.5,
119,119.0,112.9,,26.5,
120,120.0,112.3,,26.5,
121,121.0,112.6,,26.5,
122,122.0,112.8,,26.5,
123,123.0,112.3,,26.5,
124,124.0,112.6,,26.5,
125,125.0,112.8,,26.5,
126,126.0,112.3,,26.5,
127,127.0,112.6,,26.5,
128,128.0,112.8,,26.5,
129,129.0,112.2,,26.5,
130,130.0,112.5,,26.5,
131,131.0,112.6,,26.5,
132,132.0,112.2,,26.5,
133,133.0,112.5,,26.5,
134,134.0,112.6,,26.5,
135,135.0,112.2,,26.5,
136,136.0,112.3,,26.5,
137,137.0,112.6,,26.5,
138,138.0,112.2,,26.5,
139,139.0,112.3,,26.5,
140,140.0,112.6,,26.5,
141,141.0,112.0,,26.5,
142,142.0,112.3,,26.5,
143,143.0,112.6,,26.5,
144,144.0,112.0,,26.5,
145,145.0,112.3,,26.5,
146,146.0,112.6,,26.5,
147,147.0,112.0,,26.5,
148,148.0,112.2,,26.5,
149,149.0,112.5,,26.5,
150,150.0,111.9,,26.5,
151,151.0,112.2,,26.5,
152,152.0,112.6,,26.5,
153,153.0,112.0,,26.5,
154,154.0,112.2,,26.5,
155,155.0,112.5,,26.5,
156,156.0,111.9,,26.5,
157,157.0,112.2,,26.5,
158,158.0,112.5,,26.5,
159,159.0,111.9,,26.5,
160,160.0,112.2,,26.5,
161,161.0,112.5,,26.5,
162,162.0,111.9,,26.5,
163,163.0,112.2,,26.5,
164,164.0,112.5,,26.5,
165,165.0,111.9,,26.5,
166,166.0,112.2,,26.5,
167,167.0,112.3,,26.5,
168,168.0,111.9,,26.5,
169,169.0,112.0,,26.5,
170,170.0,112.3,,26.5,
171,171.0,111.7,,26.5,
172,172.0,112.0,,26.5,
173,173.0,112.3,,26.5,
174,174.0,111.7,,26.5,
175,175.0,112.0,,26.5,
176,176.0,112.3,,26.5,
177,177.0,111.7,,26.5,
178,178.0,112.0,,26.5,
179,179.0,112.3,,26.5,
180,180.0,111.7,,26.5,
181,181.0,112.0,,26.5,
182,182.0,112.2,,26.5,
183,183.0,111.7,,26.5,
184,184.0,111.9,,26.5,
185,185.0,112.2,,26.5,
186,186.0,111.7,,26.5,
187,187.0,111.9,,26.5,
188,188.0,112.2,,26.5,
189,189.0,111.6,,26.5,
190,190.0,111.9,,26.5,
191,191.0,112.2,,26.5,
192,192.0,111.7,,26.5,
193,193.0,112.0,,26.5,
194,194.0,112.2,,26.5,
195,195.0,111.6,,26.5,
196,196.0,111.9,,26.5,
197,197.0,112.2,,26.5,
198,198.0,111.6,,26.5,
199,199.0,111.9,,26.5,
200,200.0,112.2,,26.5,
201,201.0,111.6,,26.5,
202,202.0,111.9,,26.5,
203,203.0,112.0,,26.5,
204,204.0,111.6,,26.5,
205,205.0,111.7,,26.5,
206,206.0,112.0,,26.5,
207,207.0,111.6,,26.5,
208,208.0,111.7,,26.5,
209,209.0,112.0,,26.5,
210,210.0,111.6,,26.5,
211,211.0,111.7,,26.5,
212,212.0,112.0,,26.5,
213,213.0,111.6,,26.5,
214,214.0,111.7,,26.5,
215,215.0,112.0,,26.5,
216,216.0,111.4,,26.5,
217,217.0,111.7,,26.5,
218,218.0,111.9,,26.5,
219,219.0,111.4,,26.5,
220,220.0,111.7,,26.5,
221,221.0,112.0,,26.5,
222,222.0,111.4,,26.5,
223,223.0,111.7,,26.5,
224,224.0,111.9,,26.5,
225,225.0,111.4,,26.5,
226,226.0,111.7,,26.5,
227,227.0,112.0,,26.5,
228,228.0,111.4,,26.5,
229,229.0,111.7,,26.5,
230,230.0,112.0,,26.5,
231,231.0,111.4,,26.5,
232,232.0,111.7,,26.5,
233,233.0,111.9,,26.5,
234,234.0,111.4,,26.5,
235,235.0,111.6,,26.5,
236,236.0,111.9,,26.5,
237,237.0,111.4,,26.5,
238,238.0,111.6,,26.5,
239,239.0,111.9,,26.5,
240,240.0,111.4,,26.5,
241,241.0,111.7,,26.5,
242,242.0,111.9,,26.5,
243,243.0,111.4,,26.5,
244,244.0,111.6,,26.5,
245,245.0,111.7,,26.5,
246,246.0,111.4,,26.5,
247,247.0,111.7,,26.5,
248,248.0,111.9,,26.5,
249,249.0,111.4,,26.5,
250,250.0,111.6,,26.5,
251,251.0,111.9,,26.6,
252,252.0,111.3,,26.5,
253,253.0,111.6,,26.5,
254,254.0,111.9,,26.5,
255,255.0,111.4,,26.5,
256,256.0,111.6,,26.5,
257,257.0,111.9,,26.6,inner_processor_check
258,258.0,111.3,,26.5,
259,259.0,111.6,,26.5,
260,260.0,111.9,,26.5,
261,261.0,111.3,,26.5,
262,262.0,111.6,,26.5,
263,263.0,111.9,,26.5,
264,264.0,111.3,,26.5,
265,265.0,111.4,,26.5,
266,266.0,111.7,,26.6,
267,267.0,111.3,,26.6,inner_processor_check
268,268.0,111.4,,26.6,inner_processor_check
269,269.0,111.7,,26.6,
270,270.0,111.1,inner_processor_check,26.6,
271,271.0,111.3,inner_processor_check,26.6,inner_processor_check
272,272.0,111.6,,26.6,
273,273.0,111.0,,26.6,
274,274.0,111.3,,26.7,
275,275.0,111.6,,26.7,
276,276.0,110.8,,26.7,
277,277.0,111.1,,26.7,
278,278.0,111.4,,26.7,
279,279.0,110.8,,26.6,
280,280.0,111.1,inner_processor_check,26.6,
281,281.0,111.4,,26.6,inner_processor_check
282,282.0,111.0,,26.6,
283,283.0,111.1,inner_processor_check,26.6,
284,284.0,111.4,,26.6,
285,285.0,110.8,,26.6,
286,286.0,111.1,,26.6,
287,287.0,111.4,,26.6,inner_processor_check
288,288.0,110.8,,26.6,
289,289.0,111.1,,26.6,
290,290.0,111.4,,26.6,
291,291.0,110.8,,26.6,
292,292.0,11.1,,26.6,
293,293.0,111.4,,26.6,
294,294.0,110.8,,26.6,
295,295.0,111.1,,26.6,
296,296.0,111.4,,26.6,
297,297.0,110.8,,26.6,
298,298.0,111.1,inner_processor_check,26.6,
299,299.0,111.4,,26.6,
300,300.0,110.8,,26.6,
301,301.0,111.0,,26.6,
302,302.0,111.3,,26.6,
303,303.0,110.8,,26.6,
304,304.0,111.0,,26.6,
305,305.0,111.3,,26.6,inner_processor_check
306,306.0,110.7,,26.6,
307,307.0,111.0,,26.6,
308,308.0,111.3,,26.6,inner_processor_check
309,309.0,110.8,,26.6,inner_processor_check
310,310.0,111.0,,26.6,
311,311.0,111.3,,26.6,
312,312.0,110.7,,26.6,
313,313.0,111.0,,26.6,
314,314.0,111.3,,26.6,
315,315.0,110.7,,26.6,inner_processor_check
316,316.0,111.0,,26.6,
317,317.0,111.3,,26.6,
318,318.0,110.7,,26.6,inner_processor_check
319,319.0,110.8,,26.6,
320,320.0,111.3,,26.6,
321,321.0,110.7,,26.6,
322,322.0,111.0,,26.6,inner_processor_check
323,323.0,111.3,,26.6,
324,324.0,110.7,,26.6,
325,325.0,110.8,,26.6,
326,326.0,111.1,processor_sweep,26.6,
327,327.0,110.7,,26.6,
328,328.0,110.8,,26.6,
329,329.0,111.3,,26.6,
330,330.0,110.7,,26.6,
331,331.0,110.8,,26.6,
332,332.0,111.1,,26.6,
333,333.0,110.7,,26.6,
334,334.0,110.8,,26.6,
335,335.0,111.1,inner_processor_check,26.6,
336,336.0,110.7,,26.6,
337,337.0,110.8,,26.6,
338,338.0,111.1,inner_processor_check,26.6,
339,339.0,110.5,,26.6,inner_processor_check
340,340.0,110.8,,26.6,inner_processor_check
341,341.0,111.1,inner_processor_check,26.6,
342,342.0,110.7,,26.6,
343,343.0,110.8,,26.6,inner_processor_check
344,344.0,111.1,,26.6,
345,345.0,110.5,,26.6,
346,346.0,110.7,,26.6,
347,347.0,111.1,,26.6,
348,348.0,110.5,,26.6,
349,349.0,110.8,,26.6,
350,350.0,111.1,inner_processor_check,26.6,
351,351.0,110.5,,26.6,
352,352.0,110.8,,26.6,
353,353.0,111.0,,26.6,
354,354.0,110.5,,26.6,
355,355.0,110.8,,26.6,inner_processor_check
356,356.0,111.1,,26.6,
357,357.0,110.5,,26.6,
358,358.0,110.7,,26.6,
359,359.0,111.0,,26.6,
360,360.0,110.5,,26.6,
361,361.0,110.7,,26.6,
362,362.0,111.1,,26.6,
363,363.0,110.5,,26.6,
364,364.0,110.7,,26.6,
365,365.0,111.0,,26.6,
366,366.0,110.5,,26.6,
367,367.0,110.7,,26.6,
368,368.0,111.0,,26.6,
369,369.0,110.5,,26.6,
370,370.0,110.8,,26.6,
371,371.0,111.0,,26.6,
372,372.0,110.5,,26.6,
373,373.0,110.7,,26.6,
374,374.0,111.0,,26.6,
375,375.0,110.5,,26.6,
376,376.0,110.8,,26.6,inner_processor_check
377,377.0,111.0,,26.6,
378,378.0,110.5,,26.6,
379,379.0,110.7,,26.6,
380,380.0,11.0,,26.6,inner_processor_check
381,381.0,110.5,,26.6,
382,382.0,110.7,,26.6,
383,383.0,111.0,,26.6,
384,384.0,110.5,,26.6,
385,385.0,110.7,,26.6,
386,386.0,111.0,,26.6,
387,387.0,110.5,,26.6,
388,388.0,110.7,,26.6,
389,389.0,111.0,,26.6,
390,390.0,110.5,,26.6,
391,391.0,110.7,,26.6,
392,392.0,111.0,,26.6,
393,393.0,110.4,,26.6,
394,394.0,110.7,,26.6,
395,395.0,111.0,,26.6,processor_sweep
396,396.0,110.5,,26.6,
397,397.0,110.7,,26.6,
398,398.0,110.8,,26.6,
399,399.0,110.5,,26.6,
400,400.0,110.7,,26.6,
401,401.0,111.0,,26.6,
402,402.0,110.5,,26.6,
403,403.0,110.7,,26.6,
404,404.0,111.0,,26.6,
405,405.0,110.4,,26.6,
406,406.0,110.7,,26.6,
407,407.0,111.0,,26.6,
408,408.0,110.5,,26.6,
409,409.0,110.7,,26.6,inner_processor_check
410,410.0,111.0,,26.6,
411,411.0,110.5,,26.6,
412,412.0,110.5,,26.6,
413,413.0,110.8,,26.6,
414,414.0,110.4,,26.6,
415,415.0,110.5,,26.6,
416,416.0,111.0,,26.6,inner_processor_check
417,417.0,110.4,,26.6,
418,418.0,110.5,,26.6,
419,419.0,110.8,,26.6,inner_processor_check
420,420.0,110.4,,26.6,
421,421.0,110.5,,26.6,
422,422.0,110.8,,26.7,
423,423.0,110.4,,26.7,
424,424.0,110.5,,26.6,
425,425.0,110.8,,26.6,
426,426.0,110.4,,26.6,
427,427.0,110.5,,26.7,
428,428.0,110.8,,26.6,inner_processor_check
429,429.0,110.4,,26.6,inner_processor_check
430,430.0,110.7,,26.6,
431,431.0,110.8,,26.6,
432,432.0,110.4,,26.6,inner_processor_check
433,433.0,110.5,,26.6,
434,434.0,110.8,,26.7,
435,435.0,110.4,,26.7,
436,436.0,110.4,,26.7,
437,437.0,110.8,,26.7,
438,438.0,110.4,,26.7,
439,439.0,110.5,,26.7,
440,440.0,110.8,,26.7,
441,441.0,110.4,,26.7,
442,442.0,110.5,,26.7,
443,443.0,110.8,,26.7,
444,444.0,110.4,,26.7,
445,445.0,110.4,,26.7,
446,446.0,110.7,,26.7,
447,447.0,110.2,,26.6,
448,448.0,110.4,,26.6,
449,449.0,110.7,,26.6,
450,450.0,110.2,,26.7,
451,451.0,110.4,,26.7,
452,452.0,110.8,,26.7,
453,453.0,110.4,,26.7,
454,454.0,110.5,,26.7,
455,455.0,110.8,,26.7,
456,456.0,110.2,,26.7,processor_sweep
457,457.0,110.5,,26.6,
458,458.0,110.7,,26.6,
459,459.0,110.2,,26.6,
460,460.0,110.4,,26.6,
461,461.0,110.7,,26.6,processor_sweep
462,462.0,110.2,,26.7,
463,463.0,110.4,,26.7,
464,464.0,110.7,,26.7,
465,465.0,110.2,,26.7,
466,466.0,110.4,,26.7,
467,467.0,110.7,,26.6,
468,468.0,110.2,,26.7,
469,469.0,110.4,,26.6,inner_processor_check
470,470.0,110.7,,26.7,
471,471.0,110.2,,26.7,
472,472.0,110.4,,26.6,
473,473.0,110.7,,26.6,
474,474.0,110.2,,26.6,
475,475.0,110.4,,26.7,
476,476.0,110.7,,26.7,
477,477.0,110.2,,26.7,
478,478.0,110.4,,26.7,
479,479.0,110.7,,26.7,
480,480.0,110.2,,26.7,
481,481.0,110.2,,26.7,
482,482.0,110.7,,26.7,
483,483.0,110.2,,26.7,
484,484.0,110.4,,26.7,
485,485.0,110.7,,26.6,
486,486.0,110.2,,26.7,
487,487.0,110.2,,26.7,
488,488.0,110.5,,26.7,
489,489.0,110.2,,26.7,
490,490.0,110.2,,26.7,
491,491.0,110.7,,26.7,
492,492.0,110.2,,26.7,
493,493.0,110.4,,26.6,
494,494.0,110.7,,26.6,
495,495.0,110.2,,26.7,
496,496.0,110.4,,26.6,
497,497.0,110.7,,26.7,
498,498.0,110.2,,26.6,
499,499.0,110.4,,26.7,
500,500.0,110.7,,26.7,
501,501.0,110.2,,26.7,
502,502.0,10.1,,26.7,
503,503.0,110.5,,26.7,
504,504.0,110.1,,26.7,
505,505.0,110.2,,26.7,
506,506.0,110.5,,26.7,
507,507.0,110.1,,26.7,
508,508.0,109.9,,26.7,
509,509.0,110.4,,26.7,
510,510.0,109.9,,26.7,
511,511.0,109.9,,26.7,
512,512.0,110.4,,26.7,
513,513.0,109.9,,26.7,
514,514.0,109.9,,26.7,
515,515.0,110.2,,26.7,
516,516.0,109.8,,26.7,
517,517.0,109.9,,26.7,
518,518.0,110.4,,26.7,
519,519.0,109.9,,26.7,
520,520.0,110.1,,26.7,
521,521.0,110.4,,26.7,
522,522.0,109.9,,26.7,
523,523.0,110.1,,26.7,
524,524.0,110.4,,26.7,
525,525.0,109.9,,26.7,
526,526.0,110.1,,26.7,
527,527.0,110.4,,26.7,
528,528.0,109.9,,26.7,
529,529.0,109.9,,26.7,
530,530.0,110.2,,26.7,
531,531.0,109.9,,26.7,
532,532.0,109.9,,26.7,
533,533.0,110.4,,26.7,
534,534.0,109.9,,26.7,
535,535.0,110.1,,26.7,
536,536.0,110.4,,26.7,
537,537.0,109.9,,26.7,
538,538.0,109.9,,26.7,
539,539.0,110.2,,26.7,
540,540.0,109.9,,26.7,
541,541.0,109.8,,26.7,
542,542.0,110.2,,26.7,
543,543.0,109.8,,26.7,
544,544.0,109.9,,26.7,
545,545.0,110.4,,26.7,
546,546.0,109.9,,26.7,
547,547.0,109.9,,26.7,
548,548.0,110.2,,26.7,
549,549.0,109.8,,26.7,
550,550.0,109.9,,26.7,
551,551.0,110.2,,26.7,
552,552.0,109.9,,26.7,
553,553.0,109.9,,26.7,
554,554.0,110.2,,26.7,
555,555.0,109.9,,26.7,
556,556.0,109.8,,26.7,
557,557.0,110.2,,26.7,
558,558.0,109.9,,26.7,
559,559.0,109.9,,26.7,
560,560.0,110.2,,26.7,
561,561.0,109.8,,26.7,
562,562.0,109.8,,26.7,
563,563.0,110.2,,26.7,
564,564.0,109.8,,26.7,
565,565.0,109.9,,26.7,
566,566.0,110.2,,26.7,
567,567.0,109.8,,26.7,
568,568.0,109.8,,26.7,
569,569.0,10.2,,26.7,
570,570.0,109.8,,26.7,
571,571.0,109.8,,26.7,
572,572.0,110.2,,26.7,
573,573.0,109.8,,26.7,
574,574.0,109.8,,26.7,
575,575.0,110.2,,26.7,
576,576.0,109.8,,26.7,
577,577.0,109.8,,26.7,
578,578.0,110.2,,26.7,
579,579.0,109.8,,26.7,inner_processor_check
580,580.0,109.8,,26.7,
581,581.0,110.2,,26.7,
582,582.0,109.8,,26.7,
583,583.0,109.6,,26.7,
584,584.0,110.2,,26.7,
585,585.0,109.8,,26.7,
586,586.0,109.6,,26.7,
587,587.0,110.2,,26.7,
588,588.0,109.8,,26.7,
589,589.0,109.8,,26.7,
590,590.0,110.1,,26.7,
591,591.0,109.8,,26.7,
592,592.0,109.8,,26.7,
593,593.0,110.2,,26.7,
594,594.0,109.8,,26.7,
595,595.0,109.8,,26.7,
596,596.0,110.1,,26.7,
597,597.0,109.8,,26.7,
598,598.0,109.9,,26.7,
599,599.0,110.2,,26.7,
600,600.0,109.8,,26.7,
601,601.0,109.8,,26.7,
602,602.0,110.1,,26.7,
603,603.0,109.8,,26.7,
604,604.0,109.8,,26.7,
605,605.0,110.2,,26.7,
606,606.0,109.8,,26.7,
607,607.0,109.8,,26.7,
608,608.0,110.1,,26.7,
609,609.0,109.8,,26.7,
610,610.0,109.8,,26.7,
611,611.0,110.2,,26.7,
612,612.0,109.8,,26.7,
613,613.0,109.9,,26.7,
614,614.0,110.2,,26.7,
615,615.0,109.8,,26.7,
616,616.0,109.8,,26.7,
617,617.0,110.2,,26.7,
618,618.0,109.8,,26.7,
619,619.0,109.9,,26.7,
620,620.0,110.2,,26.7,
621,621.0,109.8,,26.7,
622,622.0,109.6,,26.7,
623,623.0,110.1,,26.7,
624,624.0,109.8,,26.7,
625,625.0,109.8,,26.7,
626,626.0,110.2,,26.7,
627,627.0,109.8,,26.7,
628,628.0,109.8,,26.7,
629,629.0,110.1,,26.7,
630,630.0,109.8,,26.7,
631,631.0,109.8,,26.7,
632,632.0,110.2,,26.7,
633,633.0,109.8,,26.7,
634,634.0,109.8,,26.7,
635,635.0,110.1,,26.7,
636,636.0,109.8,,26.7,
637,637.0,109.6,,26.7,
638,638.0,110.1,,26.7,
639,639.0,109.8,,26.7,
640,640.0,109.8,,26.7,
641,641.0,110.1,,26.7,
642,642.0,109.8,,26.7,
643,643.0,109.6,,26.7,
644,644.0,110.1,,26.7,
645,645.0,109.6,,26.7,
646,646.0,109.8,,26.7,
647,647.0,110.1,,26.7,
648,648.0,109.8,,26.7,
649,649.0,109.6,,26.7,
650,650.0,110.1,,26.7,
651,651.0,109.6,,26.7,
652,652.0,109.6,,26.7,
653,653.0,110.1,,26.7,
654,654.0,109.8,,26.7,
655,655.0,109.8,,26.7,
656,656.0,110.1,,26.7,
657,657.0,109.6,,26.7,
658,658.0,109.8,,26.7,
659,659.0,110.2,,26.7,
660,660.0,109.6,,26.7,
661,661.0,109.8,,26.7,
662,662.0,110.1,,26.7,
663,663.0,109.6,,26.7,
664,664.0,109.8,,26.7,
665,665.0,110.1,,26.7,
666,666.0,109.6,,26.7,
667,667.0,109.8,,26.7,
668,668.0,110.1,,26.7,
669,669.0,109.6,,26.7,
670,670.0,109.6,,26.7,
671,671.0,110.1,,26.7,
672,672.0,109.6,,26.7,
673,673.0,109.8,,26.7,
674,674.0,110.1,,26.7,
675,675.0,109.6,,26.7,
676,676.0,109.6,,26.7,
677,677.0,110.1,,26.7,
678,678.0,109.6,,26.7,
679,679.0,109.6,,26.7,
680,680.0,110.1,,26.7,
681,681.0,109.6,,26.7,
682,682.0,109.6,,26.7,
683,683.0,110.1,,26.7,
684,684.0,109.6,,26.7,
685,685.0,109.6,,26.7,
686,686.0,110.1,,26.7,
687,687.0,109.6,,26.7,
688,688.0,109.6,,26.7,
689,689.0,110.1,,26.7,
690,690.0,109.6,,26.7,
691,691.0,109.6,,26.7,
692,692.0,110.1,,26.7,
693,693.0,109.6,,26.7,
694,694.0,109.6,,26.7,
695,695.0,110.1,,26.7,
696,696.0,109.6,,26.7,
697,697.0,109.6,,26.7,
698,698.0,110.1,,26.7,
699,699.0,109.6,,26.7,
700,700.0,109.6,,26.7,
701,701.0,110.1,,26.7,
702,702.0,109.6,,26.7,
703,703.0,109.6,,26.7,
704,704.0,109.9,,26.7,
705,705.0,109.6,,26.7,
706,706.0,109.6,,26.7,
707,707.0,110.1,,26.7,
708,708.0,109.6,,26.7,
709,709.0,109.6,,26.7,
710,710.0,109.9,,26.7,
711,711.0,109.6,,26.7,
712,712.0,109.6,,26.7,
713,713.0,110.1,,26.7,
714,714.0,109.6,,26.7,
715,715.0,109.6,,26.7,
716,716.0,110.1,,26.7,
717,717.0,109.6,,26.7,
718,718.0,109.6,,26.7,
719,719.0,110.1,,26.7,
720,720.0,109.6,,26.7,
721,721.0,109.6,,26.7,
722,722.0,110.1,,26.7,
723,723.0,109.6,,26.7,
724,724.0,109.6,,26.7,
725,725.0,109.9,,26.7,
726,726.0,109.6,,26.7,
727,727.0,109.6,,26.7,
728,728.0,110.1,,26.7,
729,729.0,109.6,,26.7,
730,730.0,109.6,,26.7,
731,731.0,109.9,,26.7,
732,732.0,109.6,,26.7,
733,733.0,109.6,,26.7,
734,734.0,110.1,,26.7,
735,735.0,109.6,,26.7,
736,736.0,109.6,,26.7,
737,737.0,109.9,,26.7,
738,738.0,109.5,,26.7,
739,739.0,109.6,,26.7,
740,740.0,110.1,,26.7,
741,741.0,109.6,,26.7,
742,742.0,109.6,,26.7,
743,743.0,109.9,,26.7,
744,744.0,109.5,,26.7,
745,745.0,109.5,,26.7,
746,746.0,109.9,,26.7,
747,747.0,109.6,,26.7,
748,748.0,109.6,,26.7,
749,749.0,109.9,,26.7,
750,750.0,109.5,,26.7,
751,751.0,109.5,,26.7,
752,752.0,109.9,,26.7,
753,753.0,109.5,,26.7,
754,754.0,109.6,,26.7,
755,755.0,110.1,,26.7,
756,756.0,109.6,,26.7,
757,757.0,109.6,,26.7,
758,758.0,109.9,,26.7,
759,759.0,109.5,,26.7,
760,760.0,109.6,,26.7,
761,761.0,110.1,,26.7,
762,762.0,109.6,,26.7,
763,763.0,109.6,,26.7,
764,764.0,109.9,,26.7,
765,765.0,109.5,,26.7,
766,766.0,109.5,,26.7,
767,767.0,109.9,,26.7,
768,768.0,109.5,,26.7,
769,769.0,109.6,,26.7,
770,770.0,109.9,,26.7,
771,771.0,109.5,,26.7,
772,772.0,109.6,,26.7,
773,773.0,109.9,,26.7,
774,774.0,109.5,,26.7,
775,775.0,109.6,,26.7,
776,776.0,109.9,,26.7,
777,777.0,109.5,,26.7,
778,778.0,109.6,,26.7,
779,779.0,109.9,,26.7,
780,780.0,109.5,,26.7,
781,781.0,109.6,,26.7,
782,782.0,109.9,,26.7,
783,783.0,109.5,,26.7,
784,784.0,109.5,,26.7,
785,785.0,109.9,,26.7,
786,786.0,109.5,,26.7,
787,787.0,109.6,,26.7,
788,788.0,110.1,,26.7,
789,789.0,109.5,,26.7,
790,790.0,109.6,,26.7,
791,791.0,109.9,,26.7,
792,792.0,109.5,,26.7,
793,793.0,109.5,,26.7,
794,794.0,109.9,,26.7,
795,795.0,109.6,,26.7,
796,796.0,109.6,,26.7,
797,797.0,109.9,,26.7,
798,798.0,109.5,,26.7,
799,799.0,109.5,,26.7,
800,800.0,109.9,,26.7,
801,801.0,109.5,,26.7,
802,802.0,109.5,,26.7,
803,803.0,109.9,,26.7,
804,804.0,109.5,,26.7,
805,805.0,109.5,,26.7,
