##TITLE=0001
##JCAMP-DX=4.24
##DATATYPE=INFRARED SPECTRUM
##$NOTE=15.05.2024 13:12:20 4 ^0 x16 v:1 [Приставка: без приставки]
##$PAR1=2045
##$PAR2=2351
##$TIME1=31896
##$TIME2=32079
##$ITAB=-1,-1
##$NAK=16
##$RAZR=4
##$APO=1
##$REF=7901
##$DATIM=2122677068
##DATE=2024/05/15
##TIME=13:12
##XUNITS=1/CM
##YUNITS=TRANSMITTANCE
##XFACTOR=1
##YFACTOR=0.0237221
##FIRSTX=0
##LASTX=15801.451535575
##FIRSTY=42280.2546615
##MAXX=15801.451535575
##MINX=0
##MAXY=1.27357e+007
##MINY=3560.54
##NPOINTS=8192
##XYDATA=(X++(Y..Y))
0 1782315 3091920 8227503 5442893 1657135 1518413 1152714 900139
15.433 835647 596721 656825 615901 639031 776413 952553 731750
30.866 598045 759524 643128 554126 498569 401211 440697 549557
46.299 532356 582196 717262 625794 617854 585824 429324 353255
61.732 281328 253042 384051 441138 401315 403534 402296 339243
77.1649 431950 461946 410162 351388 359996 386357 424325 386274
92.5979 338741 469321 530215 520862 479983 428873 407233 455194
108.031 461995 409653 485229 530792 493936 511057 453977 370816
123.464 353306 422257 439359 388113 355665 449809 489990 457406
138.897 420899 439601 442715 490173 539356 524443 470317 413241
154.33 345745 336942 347908 366448 410315 493389 500706 487539
169.763 485752 479698 590717 592006 459977 395839 349780 306308
185.196 427757 485813 382254 384550 460306 451395 386125 415035
200.629 444758 427762 375097 296794 401520 370626 442602 470001
216.062 376168 338045 351767 420993 430144 461491 411669 329603
231.495 353542 392123 407350 530517 611822 551996 489661 463824
246.928 459077 483892 443312 392153 468057 542475 509359 425504
262.361 380970 447983 386832 354196 320071 363245 362423 378515
277.794 374734 358959 385114 456591 459182 512865 510991 433101
293.227 432151 499357 572827 539850 477297 404337 342244 363691
308.66 377582 330896 361481 483006 580164 537814 452555 459748
324.093 411302 348486 396994 447052 437642 448908 467962 454592
339.526 427895 428352 407141 433651 471467 530721 562618 472691
354.959 402201 386645 381760 372719 365019 402749 437016 392100
370.392 400720 453853 476397 506809 518600 497803 408398 400060
385.825 452364 547201 577999 496832 472404 520254 530091 485549
401.258 465323 500169 555924 595405 607564 588528 537251 479068
416.691 449847 495752 586722 634974 603161 572652 599894 647844
432.124 667689 671597 663332 617483 620195 651739 671935 597566
447.557 499129 529697 570613 585318 597140 598251 615402 723968
462.99 875780 1010712 1157881 1351136 1523335 1625838 1735242 1910435
478.423 2144275 2434595 2717906 2939506 3213229 3632832 4106332 4574670
493.856 5110282 5737739 6402485 7121393 8020878 9185227 10532155 11894768
509.289 13186754 14449339 15681722 16718344 17620109 18895717 20639068 22112362
524.722 23039944 24199481 25998022 27835571 29249823 30390591 31395922 32272798
540.155 33125832 33980834 34744996 35501186 36434622 37446178 38222728 38691841
555.588 39055475 39396616 39657023 39942884 40352725 40708028 41017300 41681274
571.021 42716772 43668228 44566675 45904910 47753876 49788700 51846871 53988426
586.454 56148722 57904962 59125005 60611602 62905776 65184115 66647116 67641476
601.887 68591459 69355000 69760977 69843830 69872133 70043421 69915901 69243352
617.32 69165401 70817044 73367742 75395785 77144777 79372181 81477145 82650645
632.753 83153165 83567060 84345223 85571797 86663266 87474925 88246537 88399426
648.186 88230737 89112908 90523179 92031925 94931853 97792495 99654681 103861818
663.619 105550455 93255927 76000164 77363989 95901374 109010485 110957630 111643019
679.052 113237909 113889204 116008475 119533830 122205689 125178108 129395124 133356957
694.485 136845570 140642957 144507410 148191314 151586830 154315779 156731527 159337549
709.917 161635210 163589992 166018115 168052393 167974408 167371431 169557597 173903356
725.35 177070629 178537389 179982877 181722706 183336492 185014947 186706104 188125968
740.783 189467392 190966761 192586291 194251708 195813712 197107636 198167502 199201947
756.216 200474378 202068428 203809542 205604665 207486867 209360155 211178592 213053066
771.649 214951761 216759230 218513121 220251391 221929228 223561338 225232069 227045789
787.082 229033166 231082809 233173882 235467768 237953270 240396093 242695790 244852044
802.515 246639036 247632710 247646643 247195383 247290263 248498535 250560562 253046322
817.948 255759330 258508001 261131295 263678529 266236954 268765386 271161208 273386750
833.381 275534946 277531833 278826972 279021895 278653485 278557901 278834712 279190591
848.814 279736336 280834569 282649347 285120405 288024110 291005320 293752854 296212948
864.247 298561616 300801628 302600739 303959404 305640082 308359914 312026294 316098936
879.68 320127939 323858406 327247650 330310162 332952293 335203090 337297186 339312150
895.113 341139979 342870292 344772975 346891765 348984643 350903446 352761014 354655938
910.546 356541063 358423629 360366048 362318571 364220518 366125912 368068707 369977692
925.979 371803538 373604528 375412805 377108600 378641647 380247407 382126442 384145349
941.412 386133329 388117671 390134014 392157110 394171264 396124039 397997571 399877091
956.845 401692915 403097758 403896976 404466583 405504771 407357509 409738060 412170660
972.278 414499917 416795431 419007447 421032973 422967646 424943882 426815196 428365095
987.711 429731202 431226080 432856196 434387649 435684165 436662220 437233807 437577622
1003.14 438098293 438928111 439845203 440715350 441597317 442458318 443168525 443718550
1018.58 444199445 444655398 445083783 445490943 445870611 446183572 446439607 446776918
1034.01 447338802 448073801 448806130 449478299 450165600 450925837 451797533 452854350
1049.44 454131860 455566674 457047718 458486408 459872936 461261474 462635127 463863408
1064.88 464856182 465639122 466276397 466839184 467367950 467818068 468196525 468664049
1080.31 469311547 470046574 470812531 471585573 472197110 472604775 473170048 474201499
1095.74 475476560 476609651 477562253 478451384 479211929 479754428 480131824 480353783
1111.18 480401783 480489041 480879467 481541304 482357939 483374696 484586456 485914755
1126.61 487422196 489129784 490799328 492177072 493237676 494122307 494969127 495785095
1142.04 496501401 497074598 497412070 497456879 497440422 497701786 498301543 499088947
1157.47 499969784 500968839 502149606 503476821 504849903 506255782 507543189 508312688
1172.91 508608807 509107251 510018765 510763607 511010019 510798640 509890195 508220463
1188.34 506214929 503893151 500762754 496635997 491716178 486505728 481789068 478119336
1203.77 475835288 475183142 475639233 476285208 476306972 474184353 470104565 469004407
1219.21 474334366 480910692 481956741 478624055 475775622 474904285 475716062 478517536
1234.64 483010373 488296355 493707152 498520222 502325013 505633199 508979501 511873620
1250.07 513613622 514727746 516127888 517246877 517239425 517187805 518445174 519977945
1265.51 519581799 516737187 513438310 512777331 516077262 521203798 524983558 526905155
1280.94 528586484 530161700 530022605 528502648 528459264 530875419 533286273 533912292
1296.37 533940527 534840742 536240668 536870911 536455732 536136281 535865428 533376573
1311.8 528695328 524754473 521215400 516605798 515224938 520027984 525391721 527158055
1327.24 527617412 527153599 525159961 522400280 512941175 492264102 475109735 479551315
1342.67 498035345 508413674 505055994 499536770 497643455 493890015 488397612 487041355
1358.1 481283693 459682094 438643753 440968114 457209042 466188318 463533290 450749666
1373.54 436525582 439116409 456251808 469515221 478049295 480093765 463519789 447347821
1388.97 458322169 471608765 455179630 428325186 420787283 434445122 456381631 468090262
1404.4 466728105 472509372 485727288 488677205 487095445 479685115 443376641 398708200
1419.83 394758898 426272282 455251625 468361980 466360555 458848937 457634564 445264782
1435.27 412723586 403499503 440543936 478359965 481995366 466366770 448989284 440922868
1450.7 449523021 442852940 383718912 319530882 334965985 408565541 443005854 430677300
1466.13 440054639 461866265 432086587 371927550 358726148 402024975 450496850 474836068
1481.57 483552381 483100530 457867114 406563829 374445422 394171226 421960856 405130642
1497 373345028 385797319 424855915 414205296 335413175 269896378 291849999 362953967
1512.43 397538005 383510441 358422434 332213639 309213343 309762269 331843020 361214570
1527.87 394629719 409368147 389596831 372916202 372060138 336084172 270263359 252880507
1543.3 301576460 364290868 407665012 422572951 413518235 395892479 355845004 283974382
1558.73 243552721 292080703 383004257 432674680 421965753 397528115 405027231 423456819
1574.16 405529314 380150325 407679073 462899838 486399824 484776056 486444136 486292461
1589.6 478662261 471146715 464775133 460182109 460594965 459566444 452284056 448101464
1605.03 448596832 441381889 433978107 440772378 433690339 390605179 360643786 378830791
1620.46 397595236 387250878 381641502 394621280 412390016 427392971 412984280 358777416
1635.9 322834259 352076922 410016068 431702798 393102393 335224064 318843128 324547551
1651.33 289281596 252994163 302517644 395702391 425221619 397293102 389688103 403830256
1666.76 386495431 345792349 333838942 346289521 347686868 353623415 375500103 362721665
1682.2 302507305 267016752 295944598 347123865 376077297 371976880 338164902 290599983
1697.63 252887175 242092327 261077916 291647910 311880584 324736512 339792330 341620104
1713.06 311518621 263867225 237260098 254210271 295359832 322034141 323641685 317740386
1728.49 306427158 275140064 235720901 223134551 242228646 260226920 259745302 258036189
1743.93 264423840 261869863 245446551 238489808 254200692 275798229 285609714 284701931
1759.36 281197712 281780820 289831654 298146801 292633311 270295683 247888481 247569737
1774.79 270174821 291643108 296043428 292651617 291869484 293422856 295727074 290054512
1790.23 268423356 249939951 257312120 274346644 274310458 264892106 265951057 275598925
1805.66 280571349 275125142 264943266 260393380 261171942 257489544 249652920 244522748
1821.09 238285264 226663848 215907049 208363435 201635624 201964474 211259759 216623101
1836.53 213460420 210304608 204286771 188565927 175789156 179261465 189837352 194709822
1851.96 194845757 194084322 192135427 189037614 185901321 183609153 180286231 171225037
1867.39 158930958 154995449 162479431 170263244 171187861 169294054 167709252 165299484
1882.82 162817653 160557895 156024206 150454736 148462479 149287095 148675933 147154605
1898.26 147050412 146780834 144878453 142695807 140168140 136372385 133687446 133906097
1913.69 133280783 128653710 123604235 121908415 121604236 120721439 120664296 121204909
1929.12 120293523 118246877 116323480 114533057 112711098 109991139 105599590 101853586
1944.56 101382677 102695366 103088729 102288666 100925017 99310454 97750264 96201669
1959.99 94740645 93626514 92260757 90354101 89206799 89436283 89696209 89151794
1975.42 88618551 88864352 89782458 90906136 91770070 92151331 91931549 90932130
1990.86 89768675 89866404 91334762 92496632 92444074 91841699 91113920 90179949
2006.29 89376619 89031029 88997667 88918593 88315569 87209432 86520852 86749968
2021.72 87243317 87460430 87539974 87569067 87477578 87354703 87416342 87856041
2037.15 88570644 89259215 89993899 90969973 91916794 92758091 94120676 96241953
2052.59 98364075 99861281 100988483 102092661 102905954 103143157 103285688 104049361
2068.02 105378471 106752971 108034499 109234852 110193528 111060085 112189989 113456348
2083.45 114518612 115341755 115878712 115980506 115766693 115446729 115072713 114786732
2098.89 114827139 115225877 115762414 116168067 116417803 116730028 117139640 117457976
2114.32 117632185 117599199 117120036 116169296 114924678 113349065 111377883 109151069
2129.75 106646817 103710495 100638944 98047767 96114090 94536876 93104519 91750941
2145.19 90329469 88845672 87567835 86539730 85366327 83750924 82053663 81105309
2160.62 81319807 82209588 83116916 83965172 84826598 85405674 85472674 85288186
2176.05 85233981 85356006 85526231 85796462 86254561 86777690 87281041 87863150
2191.48 88507968 89087775 89600827 90052550 90401751 90734707 91148486 91617268
2206.92 92153381 92786140 93384352 93784642 94032869 94343490 94827059 95375270
2222.35 95910163 96524803 97231900 97915814 98590457 99321100 100015144 100643580
2237.78 101411937 102419089 103430225 104214290 104822522 105366746 105866875 106438093
2253.22 107244968 108250970 109301740 110282931 111117524 111926626 113019781 114461940
2268.65 116067253 117886872 120128949 122697340 125400344 128445958 132136444 136184262
2284.08 139937262 143145970 145827881 147741866 148805469 149419681 149728437 149439706
2299.52 148591112 147309440 144972590 140905571 135602435 130239942 125542190 121706497
2314.95 118249362 113643646 107143063 100957552 97834895 96802983 94365235 89502712
2330.38 84804454 82461296 81174852 78798081 76164694 74732198 74261237 77793375
2345.81 90155009 104929985 106338722 90658881 70846113 57372302 49760037 45603760
2361.25 44607451 46031977 49381852 55022361 62941061 73329828 86803227 103052309
2376.68 121159854 140568599 160246055 177938410 191289939 199422545 203092301 203608030
2392.11 202209084 200056333 197824283 195537280 193125334 190612234 187993116 185473479
2407.55 183430296 181946851 180720875 179402333 177913698 176437251 175069926 173691794
2422.98 172226986 170790584 169540963 168475675 167451642 166446789 165563375 164768921
2438.41 163998737 163356345 162915679 162603984 162361803 162201895 162176126 162283834
2453.85 162401304 162449244 162425549 162220149 161787716 161296024 160791183 160185850
2469.28 159589835 159110387 158615652 158042208 157483655 156916102 156265774 155620633
2484.71 155082140 154587778 154077885 153672710 153449340 153183158 152651777 152045111
2500.14 151659240 151402582 151038517 150622431 150302213 150003354 149614465 149224849
2515.58 149000092 148953238 148927328 148817867 148686545 148539306 148274326 147959608
2531.01 147756015 147642318 147598732 147698817 147827646 147841639 147882694 148054110
2546.44 148201992 148288464 148455415 148680490 148842891 149052117 149520245 150144565
2561.88 150587373 150821157 151178374 151801233 152518908 153266319 154159250 155209308
2577.31 156298092 157348349 158354975 159365685 160496828 161831061 163292126 164753727
2592.74 166213014 167761193 169475900 171342476 173260222 175241474 177441434 179851086
2608.18 182311668 184821533 187434628 190135117 193037960 196246188 199599839 202992943
2623.61 206560653 210347032 214248402 218262691 222477446 226928074 231587985 236445510
2639.04 241540580 246857331 252286724 257762290 263240956 268642641 273985400 279289439
2654.47 284340209 288928299 293074960 296672390 299313494 300727905 301063374 300703593
2669.91 300023322 299260407 298498226 297710989 296780551 295611606 294331675 293170607
2685.34 292124323 291042586 289969182 289029639 288121686 287061607 285890952 284777230
2700.77 283737085 282667973 281571181 280528911 279527217 278522845 277537134 276501108
2716.21 275299406 274040855 272922476 271930319 270946997 269870710 268574374 267109043
2731.64 265764931 264641623 263513912 262270177 261049044 259884466 258632526 257284258
2747.07 255989699 254751564 253423012 252002809 250633600 249346181 248056764 246774251
2762.51 245607043 244562704 243518614 242429083 241356985 240282754 239117638 237844833
2777.94 236474197 235026173 233579830 232140469 230618763 229006586 227299789 225438563
2793.37 223594168 222064424 220734937 219233761 217591989 216181480 215167974 214423027
2808.8 213732490 212916913 211955589 210970185 210025933 209132473 208356620 207704772
2824.24 207049970 206297043 205432960 204438550 203355300 202362901 201541608 200543166
2839.67 198833750 196384640 193635390 190763181 187837081 185537881 184562138 184563589
2855.1 184691221 184626085 184385196 183895470 183204155 182457000 181648643 180818231
2870.54 180115437 179424088 178477326 177387161 176456243 175625901 174664714 173590042
2885.97 172499687 171394200 170344474 169381821 168264274 166801558 165216938 163802481
2901.4 162500731 161099572 159520451 157793006 155995809 154106202 151847737 149138080
2916.83 146567499 144795463 143792777 143240542 143091440 143266685 143411447 143310691
2932.27 143147547 143125985 143116414 142968901 142893809 143039058 143042865 142571782
2947.7 141832713 141093525 140253307 139215985 138208265 137462710 136889122 136302775
2963.13 135682208 134900335 133725285 132475617 131887483 132020643 132203258 132046719
2978.57 131618885 130951816 130084677 129169036 128286081 127555159 127179155 127069425
2994 126948453 126924683 127289390 127855366 128234842 128533845 129068354 129694650
3009.43 130010798 129885927 129392158 128619915 127792386 127168171 126782260 126542482
3024.87 126406529 126334824 126271502 126093190 125534155 124467078 123133138 121824410
3040.3 120641138 119579790 118502033 117294498 116219040 115581511 115158467 114488046
3055.73 113483361 112456834 111730886 111286219 110883982 110547799 110429660 110256034
3071.16 109693588 109061147 108825741 108755251 108374594 107805510 107414454 107127430
3086.6 106761799 106456719 106215042 105730399 105050526 104603444 104430931 104203643
3102.03 103907555 103822547 103998724 104211352 104260323 104120126 103942133 103914691
3117.46 104023277 104064803 103940700 103779135 103778647 103995141 104220594 104237919
3132.9 104270393 104709764 105385696 105813278 106028082 106389753 106893283 107378710
3148.33 107932890 108583558 109159759 109693256 110394508 111259740 112184264 113189118
3163.76 114220302 115180950 116247757 117651175 119244486 120644452 121658827 122491662
3179.2 123490246 124588497 125395798 125893136 126312675 126553040 126506626 126375167
3194.63 126190679 125894652 125823882 126193572 126606572 126740842 126772403 126818389
3210.06 126731601 126476215 126109626 125552914 124809877 124135978 123634314 123008409
3225.49 122026253 120902927 119983414 119315634 118682080 117928742 117184305 116638525
3240.93 116182590 115668317 115371941 115563780 115880245 115841633 115591060 115507759
3256.36 115657011 116039272 116716138 117492701 118119500 118782209 119792623 120950845
3271.79 121813195 122453508 123345259 124577347 125828644 127026621 128359944 129761198
3287.23 131002727 132168132 133527787 135042649 136351433 137259903 138022903 139072776
3302.66 140577518 142279180 143750473 144914240 146202955 148028759 150341654 152817576
3318.09 155131915 157082220 158702299 160077879 161124889 161845685 162348976 162369306
3333.53 161504853 159903674 157799807 154763169 150416665 145361408 140673187 137086739
3348.96 134808126 133389089 132046645 130591292 129406164 128484418 127383172 125921873
3364.39 124314529 122935538 122025332 121440430 121060830 121204822 122115562 123615334
3379.82 125471583 127493351 129646297 132317521 135662865 139109926 142302989 145544881
3395.26 148985285 152484098 155847403 158476150 159823046 160258499 160341881 159866150
3410.69 158461452 156109930 152595866 147473837 141040357 134800757 130293601 127454370
3426.12 124976648 122180572 119387141 116931462 114976258 113545566 112209371 110642728
3441.56 109043512 107264674 104975011 102946869 102127020 101784271 100690748 99090462
3456.99 97699783 96369943 95064910 94345935 94202606 94071195 93849018 93536103
3472.42 92853395 92087518 91762699 91387913 90444518 89795881 90102970 90480964
3487.86 90429475 90701523 91186320 90929435 90410752 90453724 89983225 88368427
3503.29 87519936 88401462 89136010 88976567 89555335 91032025 91791422 91625964
3518.72 91148541 89919509 87983071 86604184 86395213 87212291 89007419 90854354
3534.15 91304848 90761422 90915395 91487861 90197861 86778152 84502904 85498390
3549.59 87214013 87188297 87371906 89157272 89902306 88468794 86653173 83419130
3565.02 77211798 73029362 76551243 84115732 88318202 88580127 88173578 87697316
3580.45 87016053 85873952 81673991 75080886 72922737 77084414 80324839 79204429
3595.89 78205460 79242078 80289975 81433209 82215155 79906030 75475405 72978222
3611.32 73036436 73656090 73622554 72105780 70699906 73695359 79567557 79211209
3626.75 70212986 63168213 66461273 75363050 82098773 85837339 88191242 88693155
3642.19 87228098 83064967 73679101 62572480 60564634 69789060 78693980 81319848
3657.62 84258295 89992025 93624436 94240840 91791733 83548369 73974964 70222800
3673.05 68659412 65490162 67946327 78778000 89001795 92900398 90924865 82856855
3688.48 73538641 72710440 80981038 89692071 93820068 93655492 90637639 88579021
3703.92 90519564 92351309 87772222 79254391 76767813 84379486 94083370 96780057
3719.35 93350624 89301245 86446157 85562393 87598631 88821766 84048827 74835136
3734.78 68792107 72348266 82919832 88079838 81377092 73711392 74620925 76422308
3750.22 74032928 78054650 91843979 102143595 103575872 105636801 111596414 114657870
3765.65 113023954 111088395 112015626 117568273 125745107 128999215 124811768 120894088
3781.08 122681251 126582748 128999830 131414266 135163317 137407361 134510949 127973967
3796.52 121589434 114485480 107139964 106309664 111922988 116156431 121140114 131372108
3811.95 135767162 126557068 115596677 110937830 107673238 107830444 116849736 127721237
3827.38 131887440 130956638 128233497 123343734 115842020 108219902 106541726 113767282
3842.81 124626500 134165580 140891993 137775398 119161466 97858739 95283072 113800443
3858.25 133563498 137960578 131176630 126132391 125417231 123592962 120551339 122443159
3873.68 131592126 140996978 142414522 137663056 133814163 132377778 133282159 137736914
3889.11 141285029 140920838 143541197 149853550 148191807 136480068 126337704 124491831
3904.55 130940773 144627979 158833296 165796999 165782413 161332768 154220335 150639936
3919.98 153804969 157270388 157298867 158265687 160348881 158875704 156102491 158467835
3935.41 165149338 169508786 168180476 164008443 161887030 162656425 163161327 163069958
3950.85 165362537 169414042 171659739 171828577 171676001 171524062 171897107 173384845
3966.28 174605756 174450379 173811503 173358919 173150690 173797802 175171235 176006839
3981.71 176100478 176410278 176901944 176688439 175938884 175621960 175916928 176451144
3997.14 177138646 177715923 177787072 177576342 177363892 177019899 176846427 177295481
4012.58 177897575 177996771 177787893 177720917 177836262 177954182 177971351 178003404
4028.01 178203736 178484863 178681585 178730904 178656911 178631532 178670395 178430938
4043.44 177987206 178043496 178710007 179220592 179227570 179158335 179254076 179281581
4058.88 179147733 179106402 179295964 179484240 179463363 179385302 179453095 179600266
4074.31 179678146 179644034 179517285 179403100 179426947 179528338 179588678 179681967
4089.74 179857237 179942831 179888812 179926722 180173250 180414570 180364227 180004126
4105.18 179690189 179768692 180105313 180374022 180580455 180811014 180932247 180926196
4120.61 180943642 180948118 180861402 180813349 180853297 180836982 180753183 180741843
4136.04 180839480 180991280 181147719 181237995 181257230 181357632 181633328 181900057
4151.47 181906314 181677061 181461320 181403130 181422748 181433775 181524088 181752370
4166.91 181918422 181862447 181788882 181882463 181936296 181789560 181674122 181748616
4182.34 181806276 181714558 181631494 181646841 181682125 181740056 181834749 181850352
4197.77 181792251 181809121 181810930 181615127 181410810 181464477 181634146 181671792
4213.21 181608247 181569159 181568890 181540761 181440385 181369355 181427287 181460376
4228.64 181352117 181331237 181527077 181671144 181590183 181433522 181288744 181108076
4244.07 180950109 180906727 180918948 180869359 180782926 180816286 180972545 180977165
4259.5 180669105 180299436 180173393 180275825 180431833 180512093 180407531 180129784
4274.94 179926768 179975272 180045425 179849796 179550311 179445592 179441812 179334300
4290.37 179205291 179139730 179017396 178804884 178654882 178663764 178741299 178723703
4305.8 178585338 178437338 178284644 178045726 177785386 177604918 177462506 177342593
4321.24 177319907 177340851 177250396 177067558 176955233 176901521 176722920 176412975
4336.67 176138203 175913008 175665106 175454941 175310233 175143898 174946722 174743561
4352.1 174510687 174316988 174222594 174094039 173853680 173630017 173438297 173133376
4367.54 172782101 172625009 172637956 172563097 172341203 172104544 171855754 171527052
4382.97 171162492 170801400 170456169 170232533 170151595 170010764 169698346 169384783
4398.4 169208684 169041258 168714405 168301040 168030963 167995434 168015733 167803482
4413.83 167283889 166724980 166387382 166183648 165962037 165816559 165764967 165563322
4429.27 165126596 164653721 164250421 163864923 163490738 163138707 162803023 162529627
4444.7 162330644 162130069 161878286 161560823 161163956 160753721 160426789 160183096
4460.13 159988992 159808193 159516254 159030416 158469279 157979919 157569442 157205600
4475.57 156877092 156557245 156256948 156007855 155729750 155304346 154789806 154336321
4491 153935616 153505708 153109032 152801413 152435746 151902978 151355841 150946698
4506.43 150581087 150131256 149667996 149312645 149034711 148737614 148416064 148094087
4521.87 147710116 147220979 146730389 146322598 145880976 145307896 144752211 144353961
4537.3 144002570 143565448 143067291 142553232 142064348 141693761 141444776 141171441
4552.73 140767323 140266836 139737841 139204802 138703408 138276623 137858184 137343315
4568.16 136790436 136304684 135846339 135385550 134960567 134505949 133969740 133458324
4583.6 133035345 132658628 132310571 131947772 131513101 131050141 130604859 130160475
4599.03 129722416 129265923 128719661 128102224 127516942 127063434 126775105 126507909
4614.46 126057141 125459498 124902311 124412801 123924144 123465812 123053188 122559294
4629.9 121889243 121190390 120695313 120405279 120134064 119756910 119231820 118596564
4645.33 118048293 117728496 117455746 116972345 116325992 115756764 115335445 114898461
4660.76 114325526 113744484 113314922 112937109 112433928 111855071 111333400 110858315
4676.2 110372522 109878409 109409361 109014101 108672964 108251728 107679683 107043849
4691.63 106442367 105913164 105475685 105134829 104887243 104679758 104351142 103773128
4707.06 103055761 102473637 102128126 101775430 101207834 100652261 100333886 99975186
4722.49 99345275 98744855 98367157 97923134 97285746 96727760 96364103 96011325
4737.93 95576799 95110811 94609156 94100976 93694569 93307306 92739294 92123091
4753.36 91751232 91511922 91093596 90512863 89971153 89540914 89202183 88855942
4768.79 88354084 87716362 87129879 86696049 86357665 86028963 85685548 85313839
4784.23 84824917 84174515 83534556 83103725 82840923 82600229 82318673 81948652
4799.66 81481186 81025417 80632446 80201051 79691860 79214751 78889189 78737082
4815.09 78597227 78214589 77596087 77033722 76651802 76285252 75829688 75378777
4830.53 75033731 74751606 74402229 73981836 73634873 73357686 72962946 72447287
4845.96 72018209 71720978 71422301 71083825 70723525 70308447 69910432 69639050
4861.39 69343181 68831731 68294382 67987349 67774340 67458724 67165647 67024667
4876.82 66887938 66581725 66127608 65644767 65225365 64893050 64578265 64200472
4892.26 63825865 63569348 63315622 62876075 62414707 62225073 62160260 61860728
4907.69 61374362 60975848 60644871 60243083 59864218 59590942 59297028 58958558
4923.12 58728902 58595761 58377267 58042187 57736045 57546384 57364537 57011241
4938.56 56540973 56223237 56101308 55895750 55452317 54974484 54735483 54699824
4953.99 54542301 54120204 53687229 53435383 53227723 52971607 52768395 52619997
4969.42 52405251 52086175 51699971 51295972 50949474 50701724 50526113 50396200
4984.86 50268178 50040807 49699078 49395306 49212833 49013477 48694090 48378952
5000.29 48192555 48069746 47910232 47700569 47436166 47131434 46876629 46704782
5015.72 46512435 46232564 45919956 45640745 45427091 45250798 44999213 44641436
5031.15 44308469 44082297 43929869 43828487 43728709 43552787 43321621 43084952
5046.59 42841138 42644982 42533532 42370926 42062309 41773989 41651138 41502087
5062.02 41112485 40712227 40639091 40700859 40492847 40091607 39803669 39630304
5077.45 39469590 39374139 39340163 39214459 38890039 38443302 38068931 37844064
5092.89 37643129 37389584 37188849 37132979 37146119 37012939 36594462 36095515
5108.32 35834927 35759147 35644605 35518894 35390826 35099136 34736781 34548908
5123.75 34452304 34263686 34029294 33800294 33576525 33409490 33225820 32918833
5139.19 32611013 32417189 32271911 32147250 31994095 31671555 31250859 30984814
5154.62 30949473 31013577 30933680 30527158 30041693 29929477 30104020 30060863
5170.05 29699609 29406859 29424432 29548152 29437521 29048105 28620385 28298969
5185.48 28055041 27931575 27975410 27988131 27701837 27167714 26771701 26810914
5200.92 27021670 26752026 25877507 25132222 25158642 25778045 26399952 26565076
5216.35 26210508 25755915 25501375 25171208 24679013 24477019 24597646 24562039
5231.78 24374220 24392780 24528081 24471266 24207982 23833756 23325632 22750208
5247.22 22428809 22552870 22765669 22686396 22577420 22716695 22668468 22037417
5262.65 21284830 21109908 21537513 22027279 22222330 22249528 22250929 22080333
5278.08 21689123 21316113 21158544 21195000 21204224 20929384 20493147 20304892
5293.52 20406006 20487923 20425486 20277940 20102896 19938051 19704412 19387019
5308.95 19239379 19341349 19405459 19318678 19239099 19230093 19243371 19113113
5324.38 18625307 17950439 17520334 17435026 17514101 17524701 17206771 16680422
5339.81 16376874 16233776 15978511 15946678 16346380 16544579 16182227 15859931
5355.25 16047649 16418927 16546469 16435556 16270550 16119575 16001285 15974520
5370.68 15959132 15689827 15120315 14628882 14561304 14788809 14903635 14742117
5386.11 14565456 14620628 14698258 14471721 14070362 13860165 13896028 13998305
5401.55 14092531 14144566 13996961 13551386 12988261 12590514 12481000 12674406
5416.98 13063049 13299836 13203375 13050585 12935284 12567100 12096674 11997255
5432.41 12117495 12072448 12016744 12037016 11790224 11323341 11135710 11317340
5447.85 11551991 11734270 11907542 11920256 11615055 11146829 10833095 10788599
5463.28 10848444 10827323 10779629 10849772 10877516 10589064 10210319 10213053
5478.71 10510325 10669450 10642156 10583647 10408745 10043764 9689497 9576711
5494.14 9697944 9836010 9816784 9700037 9621841 9571977 9486964 9398696
5509.58 9356724 9308539 9151811 8922646 8808005 8842903 8829564 8709830
5525.01 8635472 8598395 8480047 8377527 8382875 8306144 8023672 7716070
5540.44 7523338 7392635 7336037 7421608 7525618 7447363 7237977 7125148
5555.88 7131725 7058019 6865109 6758063 6813237 6845477 6739084 6602448
5571.31 6522789 6455426 6373370 6274097 6114212 5940287 5900311 5982915
5586.74 6000588 5904200 5828604 5786892 5627690 5383905 5308979 5395986
5602.17 5323123 5074583 5005813 5177533 5311379 5327225 5309329 5221090
5617.61 5055732 4917384 4840811 4799053 4760718 4645403 4457942 4369937
5633.04 4420597 4385070 4178138 4032838 4055707 4055011 3966815 3924625
5648.47 3912711 3878736 3932182 4009413 3842155 3493383 3320296 3390476
5663.91 3492585 3556845 3610944 3568096 3403822 3293236 3341645 3431312
5679.34 3457853 3448845 3412868 3317109 3197046 3130422 3127199 3112829
5694.77 3046741 3006914 3042782 3055082 2990085 2948163 2952014 2886488
5710.21 2748114 2657658 2628451 2600879 2616814 2697638 2727791 2686663
5725.64 2711811 2782870 2722156 2551553 2455143 2444172 2381657 2254178
5741.07 2185439 2200943 2185440 2141705 2206492 2301274 2181710 1916743
5756.5 1833697 1973176 2074156 2063482 2101325 2176278 2135104 2058297
5771.94 2082616 2046350 1843178 1708475 1740757 1742793 1690440 1720022
5787.37 1777485 1766175 1745558 1743011 1674139 1514284 1382079 1430266
5802.8 1625903 1718525 1600874 1504630 1585964 1644433 1514474 1344678
5818.24 1274430 1262405 1314322 1398299 1393673 1256822 1109928 1082921
5833.67 1238596 1242402 1076721 933974 938014 974847 935715 1021646
5849.1 1050618 1054250 1044049 1078487 1079644 1037500 1071652 1001263
5864.54 905759 864542 826310 795279 711769 705026 821799 891632
5879.97 809320 800669 929593 1062702 944544 666547 575925 763229
5895.4 952994 803464 591087 639486 865731 802122 811453 824980
5910.83 656802 656177 743099 846224 854886 777121 609688 500408
5926.27 606007 654199 730069 660151 649663 581023 622121 646382
5941.7 553995 510794 399659 523776 602860 564073 521163 500437
5957.13 612857 633014 631836 737836 642802 501703 489568 652827
5972.57 716491 701664 732776 610899 574044 599732 537244 416622
5988 504634 541420 477745 439255 515173 526294 582000 616467
6003.43 576378 496976 420020 444088 489128 503767 484550 520283
6018.87 613674 572782 477011 515116 451460 403752 224536 248572
6034.3 407242 366897 371750 481880 549809 564732 519285 432673
6049.73 485585 413969 417068 454828 499512 548525 537073 463006
6065.16 399012 406807 344115 442023 449904 488187 523363 455243
6080.6 446886 434744 412214 415106 402575 556287 606908 618691
6096.03 652340 518289 524118 505634 521209 450203 467637 454498
6111.46 483720 450059 471205 414188 526931 453420 387646 395982
6126.9 379330 466577 540302 525044 593814 653923 603610 518564
6142.33 464141 434952 523088 505046 542864 635585 511050 503459
6157.76 452641 444019 406472 461197 488438 413425 352180 461262
6173.2 578180 582761 670587 606817 386887 358095 410342 508960
6188.63 545361 585930 483422 469085 469304 342985 387053 413658
6204.06 526179 682027 581506 553254 437137 482744 494029 378610
6219.49 298935 430970 502553 447770 558427 711083 549728 448403
6234.93 421728 364290 464959 492445 488960 529393 644574 571940
6250.36 556033 610661 564181 579895 518985 468997 417050 433945
6265.79 431573 507500 549625 621818 609507 619523 580619 569216
6281.23 529761 511748 530446 649120 555635 423141 491639 496383
6296.66 469397 419019 488103 550508 556722 480862 394364 461013
6312.09 619814 584768 503033 585411 541488 443432 483773 547649
6327.53 530316 493701 399562 327691 382002 429271 468986 544016
6342.96 499870 529153 533078 521702 619989 535621 546586 483711
6358.39 373716 342711 511891 558286 511155 497050 545419 527782
6373.82 472269 430098 336556 332558 398925 462305 506923 421947
6389.26 475857 562747 486410 487591 586295 602283 579611 518459
6404.69 439496 346185 420895 435931 448483 551412 483031 433781
6420.12 437039 485637 528977 509287 525262 488397 378407 379465
6435.56 463420 521583 469211 489808 565268 484699 407917 380573
6450.99 424955 481865 440760 463357 449422 300224 484760 575885
6466.42 642389 502066 451592 455553 440057 488088 484515 450834
6481.86 447204 419818 361721 386601 407091 495391 506049 504511
6497.29 422100 432902 385282 350567 427919 496708 404268 428845
6512.72 516022 583116 606294 547684 562937 588982 560345 600877
6528.15 533180 514221 492046 441957 404144 370753 391287 350528
6543.59 269971 327138 364883 469109 540880 582654 622595 650909
6559.02 657834 539424 465424 473941 538087 518037 465929 395759
6574.45 413596 420254 512442 481394 363030 386525 359401 350368
6589.89 345463 403882 533453 605307 603595 495535 430168 407602
6605.32 612764 697953 627298 414365 278581 356430 382028 461562
6620.75 474666 343958 585979 600131 482182 351080 427961 634784
6636.19 671200 504846 452438 459068 415626 470959 480719 479653
6651.62 526745 473390 601146 692389 542111 547028 504199 398351
6667.05 268332 506422 517904 451667 470966 538108 480869 509938
6682.48 543205 510557 514602 652320 616457 434203 358663 390339
6697.92 386752 346422 324313 422417 443494 518287 512212 448666
6713.35 492654 568597 548768 468906 503960 516671 457110 427755
6728.78 438210 345331 363423 463161 406380 277470 230882 368727
6744.22 415349 485183 431603 304309 394525 529974 566184 383427
6759.65 357057 346862 392080 372351 363942 446137 393739 294115
6775.08 416235 526521 501641 512279 476862 487127 521444 475534
6790.52 416294 416597 376858 345923 315419 259055 386840 426480
6805.95 463794 437717 494923 419528 381221 455704 501000 456699
6821.38 516924 691175 641951 551011 516231 597034 468386 318928
6836.81 340082 467074 542315 546217 394714 436892 670281 776712
6852.25 627983 429751 389444 405020 382852 380429 366707 426063
6867.68 412358 393270 461083 494930 497840 508897 450567 383930
6883.11 381418 323617 329621 297196 326050 351677 274180 308693
6898.55 428863 503260 465379 451150 377105 452339 466349 471607
6913.98 398131 331975 353707 454104 454663 413708 454060 493150
6929.41 563419 702626 591081 507808 541903 509842 506617 427022
6944.85 409577 499136 494102 591846 516324 511618 570501 406089
6960.28 305058 370741 424807 435973 357463 316249 376943 360952
6975.71 374811 384447 391712 449053 480134 398285 430851 410616
6991.14 427369 370177 256100 213695 329775 353240 383168 345474
7006.58 452231 493253 376493 399411 368030 421296 503315 650048
7022.01 701217 605156 526872 511109 514382 478418 388792 414129
7037.44 487516 484144 512961 532546 513668 419988 334706 400119
7052.88 364872 427450 444709 456406 479087 479764 451409 460095
7068.31 414911 393773 345110 419278 635219 629236 441864 307013
7083.74 340456 331688 386033 458123 520907 422366 239326 316741
7099.17 337083 417465 630950 708308 677587 528928 409307 393109
7114.61 370626 376322 397175 421870 507239 476047 420126 318814
7130.04 388926 503613 517829 493640 593720 544919 513276 464051
7145.47 423164 302723 344629 407125 471503 390142 360785 422996
7160.91 507812 522720 545387 547053 509697 472549 438146 301618
7176.34 339388 411233 476514 524061 415727 526940 519524 552543
7191.77 512185 481502 471393 478808 473517 433366 421513 469731
7207.21 425138 452185 427379 451798 417656 394680 347356 347516
7222.64 459288 422088 359249 410050 547109 574976 474018 415949
7238.07 464167 495324 466607 360605 508155 385229 414614 409066
7253.5 439624 413346 400467 416241 455873 500455 511444 455359
7268.94 420793 434902 549593 584800 403414 487574 516694 395322
7284.37 367129 336722 411041 347366 439229 520756 469766 326946
7299.8 311310 410208 475945 479115 579372 572415 550651 557442
7315.24 548655 552366 564388 478833 391131 470957 455972 422865
7330.67 412483 370818 409150 458516 488616 528048 482168 534537
7346.1 564191 433623 443506 542646 554143 389321 383989 432409
7361.54 415894 338246 376919 497599 451007 521820 483418 604563
7376.97 632089 628456 555548 482257 434662 352326 462102 416169
7392.4 308852 291714 406804 411308 418969 410041 371285 368344
7407.83 458974 503014 505685 512892 508509 444865 458004 561874
7423.27 472788 455864 483708 519295 519353 516069 507466 484464
7438.7 380170 362211 414817 454225 382838 450436 453682 370149
7454.13 425967 422197 441208 445311 447673 555753 631051 592479
7469.57 474297 383710 366497 319026 337347 363946 322970 510513
7485 505215 534858 581167 493098 443718 483129 495068 433507
7500.43 467029 467441 517370 588080 562236 436402 391282 417977
7515.87 463490 454678 396187 375105 402873 354789 450799 438325
7531.3 377742 366940 421968 404890 334868 349816 289737 333693
7546.73 355272 493216 533148 538764 544070 560484 515220 432799
7562.16 415665 438691 400690 289049 385283 596316 632108 509317
7577.6 423409 438411 435325 380213 318618 473314 492540 423423
7593.03 395599 557831 608124 552961 498013 436716 427493 398130
7608.46 309692 339409 433598 488248 456569 423076 447119 410816
7623.9 404214 460839 547914 546266 460210 358773 399330 479203
7639.33 426583 458659 481689 502506 447851 404772 436321 390416
7654.76 418689 464529 451324 425597 376706 333509 358539 447438
7670.2 541977 599963 564552 417916 324580 284623 317487 327004
7685.63 414096 434511 346524 335593 400500 444226 490573 466110
7701.06 413716 409352 318108 333479 393601 366300 305204 442671
7716.49 629398 713545 609636 535976 431274 394234 410336 370462
7731.93 387919 437430 569115 571020 439181 381969 450170 397700
7747.36 342486 389919 428769 406576 393105 409933 466342 444196
7762.79 432212 429670 429563 419108 497859 495942 437600 366706
7778.23 351461 444310 510514 556521 627361 604355 532245 513779
7793.66 566835 529057 480840 401897 451179 474616 475859 574443
7809.09 514461 383302 410248 389065 467791 584014 629054 581405
7824.53 575455 522727 388722 259614 308835 305987 434777 511404
7839.96 432307 380804 428578 440614 413680 417445 436165 451115
7855.39 450452 505673 566455 573643 463269 263174 308307 413209
7870.82 464813 349611 438193 572883 512830 456915 431869 424761
7886.26 342687 378800 399135 553335 611683 493938 436241 521145
7901.69 601725 605170 557323 537196 481691 393857 525702 535328
7917.12 512070 388918 417582 365700 410843 446849 406219 296676
7932.56 283591 381548 346120 368743 430056 523818 505522 537037
7947.99 555862 610333 542397 482392 474317 541797 579335 587534
7963.42 490356 379826 399391 505001 494192 494777 392465 473878
7978.86 554201 533584 485968 485402 418727 484637 608201 631347
7994.29 577044 520455 500822 445617 323956 363942 397641 374166
8009.72 420099 491409 507285 444545 468212 491088 509268 520527
8025.15 540753 433501 424104 530758 552429 463472 505762 569007
8040.59 458797 392228 360500 384110 429527 533935 529228 461933
8056.02 574193 519800 444860 385230 347624 394595 384080 381225
8071.45 364533 317072 473558 583930 534383 417555 353865 341314
8086.89 341767 370963 391034 434169 435980 418152 439155 429558
8102.32 487641 508729 531409 633054 681005 676890 498766 480594
8117.75 533229 417056 419584 440593 384502 409517 490285 519342
8133.19 524487 441792 372906 432724 551002 626643 495062 429338
8148.62 375728 404452 388556 375082 404207 417572 422158 433592
8164.05 454829 408166 337156 420765 464979 399897 334600 544283
8179.48 628376 496449 420927 518690 482217 468671 406633 322056
8194.92 373802 558965 530780 465292 398487 369439 440790 490257
8210.35 480782 383913 321897 371714 363981 409833 470464 454368
8225.78 403829 326797 369912 401126 438211 557506 599837 421016
8241.22 310381 317560 391204 339681 241811 332222 368631 355296
8256.65 326166 327545 384042 371509 434093 440689 382637 371213
8272.08 387871 398144 500974 441597 398882 328282 344696 367722
8287.52 375450 420732 390589 463827 519740 468029 367135 421420
8302.95 505026 578935 521459 425654 528994 422063 308676 375810
8318.38 431666 403614 406038 377312 338653 318318 233985 285975
8333.81 234808 257075 374337 375460 294605 395984 520195 519888
8349.25 360108 341092 388221 425588 512603 505669 468408 427903
8364.68 395279 426910 421456 342499 332436 391495 417603 391784
8380.11 380398 488132 555639 541724 546220 589165 549759 591128
8395.55 578361 490561 354062 296895 288896 384352 390568 337614
8410.98 324281 376321 404766 420474 356372 343279 383155 384881
8426.41 415199 433375 367923 316430 323842 370982 403931 445309
8441.84 393217 532814 595454 488704 458987 476554 417214 449038
8457.28 440433 405891 400108 368391 352237 390136 428926 474397
8472.71 489911 495457 502074 481437 434485 453985 428575 437705
8488.14 521591 612763 514058 308492 302219 417904 521706 501301
8503.58 378273 347260 370317 404762 471008 531063 559041 514824
8519.01 430073 451377 550914 511825 373937 385611 362013 426863
8534.44 433757 387161 409372 466160 478248 433259 405360 488972
8549.88 435442 333864 384028 417156 387375 371346 429629 471062
8565.31 546090 487729 487325 465671 430677 426896 415463 400143
8580.74 362499 401514 442357 437771 444846 372008 322383 373611
8596.17 407588 375156 450200 404692 383337 324550 289448 370443
8611.61 412627 521149 557267 452394 489779 405221 284510 305004
8627.04 424754 418839 472140 477356 442254 334894 327634 325149
8642.47 344152 378005 374303 351546 407648 431125 408793 491295
8657.91 436906 357518 341880 316228 393574 415076 387064 425394
8673.34 388453 381729 459154 467849 445407 586083 591461 567664
8688.77 434120 334911 334370 314155 321393 344322 417303 442606
8704.21 483840 520766 454641 325928 364786 443452 454911 356433
8719.64 362289 420866 491105 489028 438410 455459 432940 405017
8735.07 438945 419697 310234 271512 344523 465346 559616 505193
8750.5 373768 368919 375777 407576 400172 422029 496018 550554
8765.94 544024 448045 366337 374651 387324 380511 349379 392334
8781.37 459088 477301 486468 384269 337968 402151 458894 333482
8796.8 356108 417044 423269 497327 479806 426759 401683 442384
8812.24 511262 498292 437944 404059 374760 325587 396431 357626
8827.67 285410 437684 583155 529964 459504 283508 289417 375051
8843.1 437226 485908 417053 363238 345856 305719 333947 280288
8858.54 389459 383352 311849 301727 403907 433155 383616 370613
8873.97 363698 401606 457756 457957 479002 496754 437297 362686
8889.4 346054 414182 490478 367212 417600 568770 552771 499503
8904.83 466649 403407 416682 415009 367148 320708 346272 378744
8920.27 382257 428835 435920 343884 264227 286513 390873 386902
8935.7 408909 414373 317638 210959 278839 436315 533183 446058
8951.13 292213 340072 311214 374391 331647 361542 329036 428834
8966.57 481294 503976 452772 339857 377124 480245 583272 655478
8982 591195 474560 406513 367015 360051 329813 315865 309035
8997.43 264352 386127 392307 382183 374531 417893 476277 484418
9012.87 577563 464669 373963 370569 343201 359975 386561 447696
9028.3 473506 441785 394343 398236 497317 514703 406960 321416
9043.73 312340 373927 385032 366556 373419 429752 365840 364802
9059.16 410146 497802 544495 467314 515099 477961 332328 392788
9074.6 368510 292945 297804 366650 433924 480164 488481 448513
9090.03 382206 397683 428242 443125 375056 363827 329501 284459
9105.46 375594 431611 456516 505577 473892 410376 352723 343616
9120.9 392809 420722 412124 448675 367318 321194 314610 339626
9136.33 403151 461076 435728 375476 355388 380245 511462 535628
9151.76 464871 429893 325831 359890 288569 257123 283800 369207
9167.2 388921 399500 452616 433983 282265 252646 312048 345416
9182.63 328171 335917 396294 388527 400186 448098 445826 419153
9198.06 353916 402016 430156 452932 354712 360525 346925 449580
9213.49 463232 514731 443380 410906 377426 425750 363341 340737
9228.93 438058 462019 446675 396423 474326 527185 447298 336825
9244.36 280021 321832 351508 405163 292100 326610 306405 377640
9259.79 409280 486608 431899 420981 388032 324649 353577 358036
9275.23 322860 356237 447179 436678 541026 584366 488122 389879
9290.66 380774 426213 394424 264269 292534 323260 396591 392284
9306.09 323882 205977 193397 282806 368729 413854 431379 452572
9321.53 427633 413993 332518 320102 311701 319809 427618 460545
9336.96 422728 383569 473073 464168 528265 395673 329022 291252
9352.39 359603 364404 318489 329101 429216 454867 461117 454110
9367.82 387138 312478 326666 330296 314091 363236 403338 381340
9383.26 376078 389525 392653 311574 229919 310688 479846 529576
9398.69 405777 319200 357527 351480 463941 542414 406354 348966
9414.12 372600 427871 440940 345765 296996 282208 318240 328889
9429.56 296050 297013 322210 348059 385836 434295 392909 374420
9444.99 424071 378790 358994 360704 349272 378632 433224 528356
9460.42 573530 437025 323762 369545 369906 347217 344233 350794
9475.86 355690 350927 319944 251890 306526 429260 502396 499930
9491.29 409297 363710 317767 303010 278203 242736 339593 331330
9506.72 295588 256121 347211 375252 292732 308227 311785 343853
9522.15 317910 415177 528631 576315 493190 391506 342460 301061
9537.59 324183 337282 442265 462080 471253 507507 337699 347981
9553.02 394556 353043 374166 363636 368434 342653 291434 337362
9568.45 347899 335720 340654 290434 269907 267803 254915 329190
9583.89 475572 366714 354444 370276 319731 321382 367918 473062
9599.32 463000 393933 416842 522978 422761 354019 264059 238260
9614.75 268115 264966 334002 376590 280666 335199 396670 403983
9630.19 431921 390342 456787 482974 439214 506490 556103 517034
9645.62 422565 315959 417637 385785 338196 319491 306186 359224
9661.05 420375 395844 416758 396238 415576 378233 346818 321283
9676.48 360550 419279 391357 409277 434324 442522 457191 432659
9691.92 374993 360639 328940 286981 237610 315219 405031 447905
9707.35 515298 503133 507081 496320 433441 440875 332330 270607
9722.78 247881 325879 350583 447395 422778 382706 344696 333730
9738.22 345778 331783 309817 292491 307569 373478 432847 358394
9753.65 396010 378121 320013 355576 363524 408549 458545 386131
9769.08 298196 292043 353613 415376 353814 355832 376629 351937
9784.51 425729 366566 377065 427894 384719 384095 437927 430757
9799.95 320798 258671 284802 243222 254285 305276 365729 357044
9815.38 356602 406464 357129 331407 316529 374031 497442 551261
9830.81 428209 342896 319128 302251 327860 375519 423473 349533
9846.25 291948 400089 464659 288819 340299 361273 370998 332818
9861.68 322002 297614 419981 502404 498003 398529 327834 333300
9877.11 382244 328618 277673 338718 394543 464117 424133 374244
9892.55 502878 486458 381936 352962 408058 334799 383423 400844
9907.98 361558 309930 341814 374571 411595 440934 394936 404198
9923.41 412713 386159 348115 401557 443418 401416 336484 350747
9938.84 395808 429116 390909 383396 398348 321391 350232 405700
9954.28 499784 581412 492734 363695 317939 324826 387708 396445
9969.71 286061 325742 382723 387449 360846 412573 316053 235752
9985.14 214771 268952 314417 247486 295362 332312 302511 288420
10000.6 290124 282234 380214 432243 368082 279721 262311 290540
10016 372610 464078 339327 248631 316278 363923 373479 252696
10031.4 292737 348816 365460 341423 313694 286600 382522 453778
10046.9 441611 413724 350153 380074 515607 522259 435916 316375
10062.3 304402 427315 459356 411094 315289 300677 419521 571832
10077.7 594629 460906 381397 378469 359112 346131 336654 301964
10093.2 336907 442258 382318 416750 455180 339729 299399 234331
10108.6 274893 454210 593494 605139 491065 366107 363598 417595
10124 378072 326066 314630 304029 248953 281357 316415 321952
10139.5 413847 466478 437433 384446 297957 352301 422562 426966
10154.9 438362 435911 453296 398548 299182 313634 219800 274052
10170.3 296896 222333 252662 375488 367547 340515 446605 421463
10185.8 333817 401552 398938 355004 467709 498080 517380 470516
10201.2 365544 335180 328675 308587 312340 351675 414409 405471
10216.6 338684 292829 269849 343098 391043 400443 376664 353604
10232.1 313879 294460 262115 311039 409805 365958 302350 282071
10247.5 337171 376037 294091 248379 255633 278287 367913 505075
10262.9 532980 494874 382424 309375 392259 482488 333049 357729
10278.4 418899 494722 440136 342026 434521 383070 356177 331472
10293.8 377140 371723 382501 334458 364107 427958 419061 334720
10309.2 256717 312110 353339 353376 400379 409190 307615 345702
10324.7 431174 563612 527269 378535 434042 438287 368089 343060
10340.1 311844 312418 300833 335308 429254 381574 329128 206153
10355.5 243202 346614 420723 500276 472291 375367 324442 265003
10371 318320 333796 407008 435284 493098 448393 530819 484486
10386.4 333060 346308 395017 421326 365229 298871 281690 276190
10401.8 346559 414744 450933 396127 359273 281077 296284 426188
10417.3 472044 326272 304609 400548 359798 318079 297566 346404
10432.7 353634 431897 442551 360676 326189 292276 217893 269987
10448.1 237556 228774 206278 249480 359035 475416 481357 371827
10463.6 325517 277711 323785 346133 275635 280915 371331 385728
10479 372598 306449 297245 276277 227980 251058 320731 311087
10494.4 333920 368173 381432 346807 345406 343497 327781 357626
10509.9 364653 367352 394464 308765 232605 215222 248816 261892
10525.3 229013 308802 388755 393963 423813 367952 383364 358155
10540.7 304793 264979 260968 270720 275421 325429 383293 370995
10556.2 302923 342770 334152 444952 496463 401462 368040 339165
10571.6 233591 228224 266235 381118 497957 434746 353626 380134
10587 460898 369925 243692 346270 449340 384591 311596 284382
10602.5 306691 355088 389759 360668 455580 405624 378323 371717
10617.9 387003 343547 322375 369274 433183 485567 452888 305482
10633.3 281766 344268 320025 306282 185136 169307 196131 302479
10648.8 387257 375930 366880 352026 357988 338703 343060 393524
10664.2 410162 323153 327992 296489 411886 383875 363148 422487
10679.6 372549 356757 347766 337591 310260 371772 371062 275245
10695.1 340953 389643 395328 434188 431363 362155 339731 459577
10710.5 466630 425629 477558 491382 419555 417702 465509 440237
10725.9 384448 376588 408644 377344 478687 490778 376122 343984
10741.4 325694 295465 251630 266767 261953 256051 249473 295927
10756.8 290880 342282 390687 469126 469185 446094 416244 342632
10772.2 249969 257614 271907 288452 370762 424895 470978 336917
10787.7 295855 372389 467023 426536 353749 451307 448900 344169
10803.1 335180 408215 437817 445583 300596 298660 378841 330850
10818.5 338896 298683 342355 470909 517544 459420 368836 287233
10834 262095 335980 362162 329044 441282 489322 428499 382269
10849.4 319087 262466 255250 288377 291136 334451 354925 428324
10864.8 440607 367693 248224 303372 280786 280373 301472 284275
10880.3 306853 363450 391037 394975 341343 382685 416499 403799
10895.7 429097 480151 473836 439699 355893 305416 298974 294137
10911.1 292118 350654 458349 453648 472414 497552 341321 298517
10926.6 353198 354208 305768 261874 364769 444929 381488 296169
10942 379207 387771 385036 327549 389521 364459 311138 372658
10957.4 354488 298212 299608 331491 329775 316923 262046 193700
10972.9 265939 279124 272165 327453 325332 298229 314278 318996
10988.3 355860 359823 306145 369317 350164 275662 252812 214798
11003.7 200735 260755 348647 398023 363724 330107 363947 385408
11019.2 376310 303105 199492 314521 369747 371115 387230 326500
11034.6 368047 391723 333016 288275 311148 345177 340494 304631
11050 274737 281726 316839 359703 350133 333944 311913 261499
11065.5 299759 309854 378592 385194 484545 391975 409965 450880
11080.9 316007 350731 312868 310953 326266 367485 409352 319508
11096.3 290465 419381 447803 282380 259440 325099 343034 311073
11111.8 313445 308524 405762 497199 478095 439562 412533 382279
11127.2 379576 324521 287308 332850 369433 335949 286597 220569
11142.6 224623 217209 272083 334933 330156 386520 380304 310728
11158.1 361841 420370 405763 361658 378411 357661 347586 358492
11173.5 367404 371608 418575 391334 368465 349598 332846 366995
11188.9 403608 359994 319485 332385 379202 453067 445989 323080
11204.3 271638 341903 358325 338819 342276 336905 300089 256603
11219.8 233969 247105 328573 398456 423498 370237 371102 320645
11235.2 271409 281522 311000 345621 395403 400691 346711 290004
11250.6 421255 392646 341849 247552 248293 246568 257817 233653
11266.1 259803 217071 271572 366525 361548 342760 349978 372780
11281.5 329893 316730 368428 383647 337646 365704 393635 389096
11296.9 369258 306757 316450 318963 304283 344146 343351 271609
11312.4 298296 307491 271914 280753 259996 338210 405926 394527
11327.8 349552 267309 238586 308905 312185 336882 383421 358987
11343.2 308907 351988 352485 412066 381766 240137 243303 288157
11358.7 269777 190242 262950 265557 281820 352393 374473 361505
11374.1 323205 348750 449658 507050 420919 320949 268369 244011
11389.5 348639 381840 473954 495119 343719 297563 333901 362092
11405 353673 290532 202980 179598 210055 239441 299765 281118
11420.4 247442 282404 364483 391323 339570 379177 441025 452319
11435.8 404278 385853 378672 392198 354549 306319 277714 287832
11451.3 293368 346614 368023 332252 343148 384476 374182 386315
11466.7 359974 320336 349464 366843 338951 327402 310287 282654
11482.1 312151 301542 266549 250166 236720 264810 356565 351016
11497.6 291438 282463 341815 337151 352050 351616 305809 324315
11513 363773 374629 364030 341799 314847 297820 273690 336654
11528.4 352946 271136 268310 310995 351483 306756 263573 271479
11543.9 287066 297285 366768 425294 430888 377845 372061 399269
11559.3 340345 291161 329602 307508 309806 272573 323397 322000
11574.7 325243 301907 283529 315768 353983 372831 319212 320572
11590.2 319686 246609 295145 356114 285828 257990 318097 322748
11605.6 366952 383987 360821 302036 234270 271917 319705 325011
11621 323680 342195 322255 313095 305439 319338 411067 385105
11636.5 351749 337540 301542 291255 365535 327089 327845 323117
11651.9 404617 437731 383636 430697 345542 287321 326297 390064
11667.3 397964 356140 355340 363812 334730 367257 413287 372249
11682.8 377267 420844 364294 305621 304818 410312 373177 350040
11698.2 291899 311931 343746 318470 374415 428131 337790 278954
11713.6 345743 361002 380641 355309 339167 313175 324047 302716
11729.1 283965 289452 337948 442586 437031 396358 318034 290597
11744.5 234977 222644 323670 371305 327756 239139 221502 281897
11759.9 392995 448121 334360 288577 296862 338202 328096 249757
11775.4 234582 250014 220848 166219 201629 205302 238202 311708
11790.8 353494 328024 283372 242690 212861 308380 400617 417399
11806.2 318880 399864 365549 268940 358913 339019 316813 422549
11821.7 447810 276210 255465 219680 309446 305727 248376 283734
11837.1 295913 334440 344697 269993 321771 375482 384044 398690
11852.5 325881 235193 283633 325273 299926 258259 302285 358465
11868 337695 275068 247855 294634 255041 279113 383497 389904
11883.4 381594 253900 151398 212139 312419 391920 423675 519400
11898.8 460938 377313 349101 282782 337043 418560 395624 342029
11914.3 288504 291599 342440 381000 369298 373975 357100 340824
11929.7 288839 272034 249385 280719 314459 294926 350810 400519
11945.1 447559 400248 319247 324190 359085 365438 360537 313204
11960.6 323549 395161 405709 382030 257153 206610 262295 307845
11976 325963 322782 297761 335001 330727 312467 268451 205176
11991.4 288661 323793 316525 318538 466554 467530 373157 327351
12006.9 329465 413790 391680 303819 317019 305019 298982 382154
12022.3 461006 359775 333242 336239 336504 235291 286083 318058
12037.7 292810 275159 281354 309078 328178 343327 311841 264155
12053.2 307721 261131 175745 182133 281974 411693 472280 359483
12068.6 289122 251102 288236 324925 320816 305850 303573 267926
12084 315166 286566 279588 316458 326683 309357 294693 272458
12099.5 226861 354402 420636 393243 363333 372443 417841 388261
12114.9 329745 267434 256041 280458 310700 299114 310082 281751
12130.3 309968 367063 379434 327776 295680 321678 298863 284221
12145.8 276468 317477 367157 339929 291925 251417 262940 263354
12161.2 280765 399018 458585 446812 393656 354378 271357 260454
12176.6 280409 385011 444262 356468 278760 269682 256019 274590
12192.1 324253 319394 373942 396707 400554 355410 305502 280273
12207.5 302592 340966 307711 279312 316782 362081 385303 429890
12222.9 388000 287171 295450 312634 273494 271726 283030 318517
12238.4 320809 303112 255127 310024 248188 267630 289563 295578
12253.8 290555 314425 407020 309478 241891 235505 278669 353404
12269.2 360900 210680 254165 301125 280334 306894 279461 351080
12284.7 343967 425269 436843 368270 350965 375937 375731 331470
12300.1 291020 285322 299813 339995 284355 281338 274160 312725
12315.5 318081 302731 285239 294942 440901 438897 336458 276274
12331 274993 295608 308064 309979 341376 370375 344620 332466
12346.4 288419 339217 365208 351396 265279 299253 353069 370787
12361.8 360505 428863 506291 503443 438121 395315 302267 317119
12377.3 336700 316761 283587 241210 247854 257482 270487 376677
12392.7 422999 368206 411888 399539 319870 317915 339839 275768
12408.1 232890 318821 322084 365964 388723 345644 295644 291796
12423.6 280671 295729 298285 274116 190928 173910 281825 321345
12439 355385 375592 409890 438741 428518 484478 492463 342582
12454.4 302197 302954 307207 323760 323334 351834 291758 256438
12469.9 199875 316321 451993 415669 244331 201065 224106 250998
12485.3 229798 268389 355987 413844 321610 272788 295647 361514
12500.7 352235 311881 336268 317839 262473 325963 426154 389192
12516.2 362543 311697 297571 338693 301566 301786 226246 225776
12531.6 186916 263352 263004 288491 310565 326253 397793 381570
12547 325115 349238 339020 377867 319408 264888 263459 266583
12562.5 291947 296393 336952 354458 317322 266183 229814 210390
12577.9 271068 341391 381613 408267 452402 373012 224543 225498
12593.3 236116 341130 443592 416477 332771 307199 367624 367100
12608.8 258835 202080 257327 271135 245687 300101 387663 345019
12624.2 303679 252312 290270 416897 401493 262033 253127 284580
12639.6 283128 265249 218974 257336 324725 376074 312486 327582
12655.1 374935 359555 344213 347443 415928 342079 284597 270001
12670.5 212627 258221 322399 248791 259942 254807 310324 288822
12685.9 231914 265972 296693 337299 351689 364092 350664 321902
12701.3 294484 282147 369324 393836 285693 284092 300465 244145
12716.8 307758 306713 251704 266529 309955 250449 263711 302271
12732.2 232354 218280 296066 398925 384520 306167 323138 377533
12747.6 407536 375299 353017 332348 299282 274456 337843 390919
12763.1 397636 297671 235379 309227 330462 292284 303435 311335
12778.5 317080 286214 194553 211207 337119 403704 393987 383230
12793.9 343888 316178 329110 299943 373771 423689 369454 273577
12809.4 250787 342584 398938 279309 256604 312556 340175 323483
12824.8 357519 376246 338488 289036 279994 222444 265247 275574
12840.2 298046 358326 367599 265410 246499 252391 295900 294155
12855.7 286852 344037 347314 429903 500363 396474 276740 228372
12871.1 236395 227606 261101 312674 293205 227169 339606 382125
12886.5 365438 350172 315361 294284 299373 276742 242121 223526
12902 308083 335067 315880 276810 305680 308644 368405 400480
12917.4 365780 307428 292982 338935 315555 323694 283288 320869
12932.8 307675 309769 315711 318662 315155 308311 314059 330190
12948.3 349620 385723 358435 379593 362923 344982 352693 274509
12963.7 227232 304841 365008 388979 376760 301246 249514 226529
12979.1 234383 285709 280013 315379 288175 293241 354475 334529
12994.6 333200 377611 371434 310315 269305 263888 241145 217596
13010 246432 257612 269622 340167 349198 380125 336298 273474
13025.4 295417 246860 193728 251000 248763 233832 218565 281611
13040.9 301345 287147 267353 255511 279229 339177 336549 376217
13056.3 312965 280447 282953 267863 312688 329645 317313 201589
13071.7 243550 293222 331061 377498 344771 232211 247624 341737
13087.2 340349 272036 245876 195205 180309 263912 320758 330107
13102.6 274384 274915 295224 354885 336056 306949 312606 364789
13118 423126 352586 276744 245950 229749 195627 158112 176299
13133.5 183562 242515 286030 212739 181844 231473 266669 233059
13148.9 206784 293339 336431 345137 317985 300158 297287 260047
13164.3 243231 235806 327412 392788 394343 384378 329894 289359
13179.8 281935 291111 296223 355410 379587 370975 331730 365527
13195.2 395567 363017 364503 323434 280981 271293 257461 241330
13210.6 232305 318680 443694 412782 317254 283664 256913 271657
13226.1 382308 398152 420223 410722 377344 356657 323643 392276
13241.5 377368 333092 356223 374992 288390 245225 288249 307838
13256.9 364928 370481 308295 338883 373726 370712 320159 265472
13272.4 266389 277034 333383 311496 326167 266222 211450 237368
13287.8 266722 351683 476313 476444 368267 326742 273374 290115
13303.2 309237 285914 352036 383250 392691 379748 408325 366583
13318.7 338329 352472 285438 266422 179718 287251 382770 338471
13334.1 322858 371102 313873 281344 331196 368336 372348 410447
13349.5 409632 382845 319138 274227 208267 297838 285323 380115
13365 367902 373654 338676 348354 433967 414491 367328 370319
13380.4 273147 303606 357725 283878 287104 360284 319328 325151
13395.8 363160 424900 338789 280592 312846 299423 265827 266253
13411.3 239509 257320 369935 420681 467101 383849 302993 349087
13426.7 371904 261257 194930 236955 302037 372456 370245 292406
13442.1 270175 309167 352947 321822 278656 386797 441552 429922
13457.6 386117 370686 314598 255730 300470 284215 309885 273048
13473 271735 258394 269581 201690 256004 372025 468186 397835
13488.4 232096 274186 264975 237558 278792 281585 367011 333934
13503.9 354562 349542 330245 377897 395913 332632 292694 296200
13519.3 304966 295047 346430 316156 329284 316788 286069 278172
13534.7 308647 282358 250357 281155 276488 285788 250792 307172
13550.2 348032 275538 261141 287207 238790 255357 265189 267585
13565.6 366864 414697 403245 347192 311766 219554 252877 275633
13581 316501 305939 251782 244605 217426 281634 295138 315356
13596.5 289852 280488 341732 407661 405154 366382 340743 357304
13611.9 273192 317252 339209 334481 326276 292984 332894 301492
13627.3 292200 308893 292931 284762 268743 278376 329025 298916
13642.8 320866 387667 394737 376611 356309 307791 264838 216138
13658.2 315343 367838 438593 415337 405968 333318 333327 348119
13673.6 312441 282022 299520 324262 288027 266066 249467 210459
13689.1 217831 217958 255573 323885 412850 335247 287000 296978
13704.5 390083 386208 379078 324690 339029 368340 333049 299282
13719.9 345815 332175 297130 266973 299934 283386 248229 297913
13735.4 315634 282241 244115 286247 247397 235325 236510 362276
13750.8 385649 321884 326336 309574 252301 237439 259689 332061
13766.2 358672 335250 277215 249235 245413 308052 346463 366544
13781.7 334061 312294 385581 403944 344172 268351 312664 351577
13797.1 362472 368623 287931 253468 266828 236382 246810 245095
13812.5 302000 351016 333862 331736 264473 267332 347949 368445
13828 294213 284463 285057 266865 242362 213678 231906 313785
13843.4 396670 404452 440827 402514 317488 163723 229993 280408
13858.8 274124 263823 234330 259782 388085 416390 358658 308972
13874.3 267743 260714 308078 347337 362425 307667 257870 220268
13889.7 237602 356553 432389 391870 303257 307103 305000 239581
13905.1 245651 352870 329044 331081 372242 389571 291216 179149
13920.6 216518 301907 364397 342510 294895 290626 271570 244524
13936 266452 297414 269091 295096 311349 311013 274343 319986
13951.4 419645 464765 346302 187807 150094 187486 211037 245402
13966.9 267400 298579 347562 365769 364049 409172 390836 318537
13982.3 332288 222723 221096 173278 206100 221673 228232 235754
13997.7 263817 252026 229015 234327 282340 335921 290942 337382
14013.2 371121 384658 307251 307408 332112 303684 267181 302933
14028.6 266012 235631 300775 287402 316010 312419 252956 224860
14044 216738 268369 256297 219080 209423 236705 259139 306726
14059.5 339302 351533 312141 240922 313529 356855 336425 280357
14074.9 276648 315310 348936 350741 314992 292227 339475 340543
14090.3 268115 180216 214023 308167 375161 370326 279818 232455
14105.8 262942 350769 347503 389541 360243 330295 286465 201950
14121.2 209168 279200 319268 265300 212659 215154 294815 273685
14136.6 217786 199375 182911 243873 352358 452051 443217 296953
14152.1 263679 253878 283638 288252 305747 285642 197539 193025
14167.5 207366 188328 291859 341345 365630 387716 374178 322339
14182.9 265526 278483 340106 299027 255189 166559 151468 174014
14198.3 237269 298312 364274 363742 278944 306845 295094 333457
14213.8 335937 276355 238118 228019 289150 266824 263563 327523
14229.2 333334 306176 290437 278578 245771 276879 311347 259202
14244.6 270820 347613 302137 259045 288412 301092 255783 225778
14260.1 211810 271580 355146 326134 270307 196719 242208 319139
14275.5 299441 233758 282756 314262 225126 249256 281716 300006
14290.9 387670 374043 314364 266539 273510 295513 234360 377483
14306.4 382544 346625 272933 206946 217408 295827 285208 384303
14321.8 457607 381222 383365 324566 266716 223470 245493 204061
14337.2 171520 249045 366437 368463 258503 300944 263754 291022
14352.7 335135 374806 402679 421062 404172 334848 261026 243575
14368.1 216503 256902 262742 248224 272350 364138 325810 236606
14383.5 250719 234179 291874 343363 269719 251606 292441 324817
14399 290630 276983 252922 238949 244158 307065 292984 234734
14414.4 218120 280393 237320 204041 246369 251493 260927 258054
14429.8 288286 297090 307359 340098 319202 270654 286655 277583
14445.3 235065 245791 248403 328456 357760 334697 248560 209528
14460.7 279966 312786 325758 319023 327622 299968 246798 267890
14476.1 304848 312586 283816 267587 300657 376019 318186 319864
14491.6 327767 275187 270210 267419 227084 239651 249335 271848
14507 214657 250379 294622 301622 276381 344629 362463 336141
14522.4 300586 284533 319124 283722 237794 253481 235821 295945
14537.9 284739 281081 319005 337022 381220 294497 208423 268498
14553.3 250037 291139 384706 361339 332869 311972 242583 203332
14568.7 281276 337550 295557 237932 331597 293401 235568 295662
14584.2 402063 392804 295920 294778 260854 297764 278528 226093
14599.6 193793 297209 328250 300282 274776 280650 272747 367839
14615 401962 314332 272356 273976 290845 315024 244278 253995
14630.5 257514 273739 364465 401141 398181 387493 332498 302700
14645.9 216124 292949 354298 297085 198230 245444 267704 263476
14661.3 215354 242773 289834 292988 338429 357786 327136 342648
14676.8 286496 360961 409247 388781 350903 256252 232062 199239
14692.2 222126 246322 266270 283858 278180 260537 212145 233650
14707.6 263866 318980 355523 334570 286119 294723 339797 412349
14723.1 411965 296960 237803 210333 242413 273282 204769 252438
14738.5 325688 362840 378470 366722 324483 280700 286770 273968
14753.9 288565 199328 187228 239766 236757 291702 328808 379395
14769.4 332653 264425 219656 199229 166826 249624 286850 288610
14784.8 338245 318191 368604 370728 302317 300906 219319 258040
14800.2 278156 202922 203273 266517 333307 271094 285619 337091
14815.7 248502 255403 310063 287643 272691 319617 329112 307244
14831.1 264981 298641 366048 368026 327657 321342 300421 299510
14846.5 326399 275220 203424 220715 267518 247026 239279 313947
14862 397834 390057 344613 249445 273358 302335 297403 275135
14877.4 268242 312589 289120 252622 279286 355466 363327 367149
14892.8 317475 281452 236486 200625 254166 222802 247003 223786
14908.3 279360 349385 347367 336075 369283 380270 299887 250928
14923.7 221593 235587 252567 273291 329742 362920 267351 199412
14939.1 188554 216999 218694 221721 313303 327729 344765 375531
14954.6 375623 328875 249668 270619 304273 362709 303548 283134
14970 277428 270157 332798 291300 245821 282348 300555 247342
14985.4 256437 333106 435792 405903 266131 236269 272727 304506
15000.9 342836 350535 330637 262141 247470 263017 249885 242030
15016.3 243695 282931 302456 233309 258336 276943 273783 277302
15031.7 213533 179392 252455 280036 211921 201220 306166 367566
15047.2 342780 278642 264321 235920 225237 201380 251541 265513
15062.6 288042 272763 271341 284960 314116 370889 353823 302495
15078 371115 314640 239996 304264 314333 312833 355917 368274
15093.5 341290 366595 383953 335165 344081 371036 380313 377151
15108.9 354272 281205 229685 216317 267709 304974 318362 353465
15124.3 352117 275617 276486 259478 315195 351275 377110 446302
15139.8 392403 290178 217345 226289 228353 219631 234410 225918
15155.2 322311 386183 333396 318744 290224 302672 349611 322909
15170.6 275698 302912 271266 313666 344983 265955 279168 290147
15186.1 280110 319136 342796 342663 281962 299217 327554 354833
15201.5 309818 249692 203355 216540 188364 281360 300244 367504
15216.9 417464 326963 237615 265312 339205 334964 321968 276058
15232.4 289285 340766 309655 240663 278829 351724 396171 353995
15247.8 323012 260554 224210 232067 267443 285831 278063 291637
15263.2 291900 288764 306742 326410 251462 248406 224912 277971
15278.7 183230 214714 248458 235976 249281 217835 254090 296134
15294.1 328473 361687 324100 225441 266141 340934 282970 297475
15309.5 334376 316149 275561 326558 342237 336009 342537 319172
15325 319531 309091 256869 247225 221364 223484 284750 345055
15340.4 331060 361905 347403 256772 181064 202423 214167 233665
15355.8 333140 277404 240097 279666 252898 263946 250370 227729
15371.3 282325 361828 386555 324497 278788 242505 243827 272062
15386.7 384536 411824 321943 208573 205869 152190 151108 165245
15402.1 297669 369435 332775 304051 332457 350950 313720 222159
15417.6 237192 280209 300145 319971 368077 350232 336825 287030
15433 267815 311179 321276 327907 290396 305194 344217 279760
15448.4 329303 316247 285371 261557 205559 186846 174434 217696
15463.9 290419 383649 404938 278413 225972 213538 190064 162899
15479.3 166012 238364 318797 298547 275932 377249 408384 311756
15494.7 253765 249398 238023 273846 241561 182809 222689 216968
15510.2 180557 188562 268785 290259 291665 278588 248450 297495
15525.6 342964 269870 306750 409302 413485 322423 296070 326051
15541 316357 321023 291713 271500 320644 318766 313574 322537
15556.5 324149 235562 214201 226180 218965 221705 265091 315724
15571.9 289602 265512 311867 382414 387742 353000 334264 307559
15587.3 360072 396815 367404 323803 317676 278116 268703 266032
15602.8 339495 347830 277657 258820 225147 221841 335213 371262
15618.2 341097 308569 313702 264998 209341 246098 264552 289186
15633.6 247798 200552 300241 327518 346151 367504 362707 309936
15649.1 257480 266167 293770 250131 223053 269343 337501 311116
15664.5 350899 365905 342628 314472 326104 303910 248604 218493
15679.9 304670 333203 321223 301585 305353 320464 334533 307848
15695.3 226663 218814 281259 345143 359821 319418 321544 273272
15710.8 240032 301055 270326 196719 174202 243856 305667 333163
15726.2 292877 231446 270518 228322 217661 205662 171656 165884
15741.6 221729 245645 320329 390685 390030 298720 206323 181413
15757.1 255879 267006 343797 367021 358965 326236 322853 353120
15772.5 385736 383885 368608 347062 316977 322096 266642 263761
15787.9 333248 399790 370942 313841 214435 209971 316194 586649
##END=
