##TITLE=0237
##JCAMP-DX=4.24
##DATATYPE=INFRARED SPECTRUM
##$NOTE=15.05.2024 12:44:03 4 ^0 x16 v:1 [Приставка: без приставки]
##$PAR1=2045
##$PAR2=2351
##$TIME1=14163
##$TIME2=14397
##$ITAB=-1,-1
##$NAK=16
##$RAZR=4
##$APO=1
##$REF=7901
##$DATIM=2122677036
##DATE=2024/05/15
##TIME=12:44
##XUNITS=1/CM
##YUNITS=TRANSMITTANCE
##XFACTOR=1
##YFACTOR=0.0238963
##FIRSTX=0
##LASTX=15801.451535575
##FIRSTY=48524.8444413903
##MAXX=15801.451535575
##MINX=0
##MAXY=1.28292e+007
##MINY=3353.2
##NPOINTS=8192
##XYDATA=(X++(Y..Y))
0 2030644 3189585 8646044 5690820 1551958 1107004 1058876 708476
15.433 538530 545396 543217 659415 816614 727040 739064 684135
30.866 640930 685752 628012 627079 669002 509838 466742 553603
46.299 474851 489889 562270 493751 516833 469791 383410 377970
61.732 362764 392720 385430 386119 316868 368997 489425 487788
77.1649 473209 452240 371708 429509 523638 520344 497124 534365
92.5979 446316 462250 521041 439139 494181 520225 439045 416822
108.031 424692 340079 351348 432219 550533 605810 450698 320750
123.464 390046 369137 317281 353349 390067 391013 395527 371997
138.897 418038 446651 374143 429851 438672 442365 438234 385027
154.33 251612 306647 405823 463520 475307 447853 421642 491591
169.763 560829 488070 467416 392820 401506 431092 431609 465707
185.196 497216 467479 373588 356161 444360 426649 395097 363064
200.629 343546 407735 385377 397981 493703 513464 408860 343496
216.062 276632 300164 308595 344806 412472 418398 392708 405991
231.495 463441 469276 398695 423429 422876 399886 386941 359955
246.928 361560 386472 361680 387275 417822 388308 418471 415787
262.361 356627 355442 393669 474081 507964 479871 445824 420980
277.794 466883 516017 498084 445627 364442 375016 403906 359474
293.227 338992 371571 471950 520480 572190 528476 462279 451510
308.66 418853 465167 528304 593562 584802 505537 489840 572579
324.093 585359 572915 538251 541418 502292 466550 409601 426267
339.526 437003 462603 493644 517558 517697 576696 614422 540408
354.959 466956 444773 490915 474766 496290 540367 586728 662044
370.392 670604 544325 491247 459986 492881 601771 639034 606552
385.825 570794 560303 522674 488048 526954 539302 538725 576256
401.258 542910 514189 484048 506750 541214 575589 638850 577096
416.691 562655 525245 484076 517702 569430 558745 575086 625926
432.124 691445 719819 749083 753013 610222 529673 592032 653882
447.557 669241 693675 737076 745894 718949 755354 878269 965884
462.99 990339 1123901 1290462 1395028 1524670 1767229 2016157 2162138
478.423 2305758 2546638 2766243 2919168 3189954 3609110 4016442 4458394
493.856 5101506 5886928 6630748 7320995 8157435 9283211 10570351 11860936
509.289 13229805 14718303 16052933 16984434 17835019 19217805 21010772 22419220
524.722 23379816 24681209 26509756 28271598 29681335 30861624 31864273 32747086
540.155 33600434 34409467 35191441 36019016 36874317 37705325 38449703 38989889
555.588 39320096 39584141 39862427 40184938 40580336 40948326 41308282 41983692
571.021 42979964 43856473 44658209 45923084 47694658 49621849 51705006 54085307
586.454 56450383 58211127 59394857 60894015 63128582 65253191 66602524 67612372
601.887 68674380 69549907 70007159 70071872 69972686 69915496 69671460 69200093
617.32 69481829 71300536 73771432 75690342 77364172 79443155 81377038 82559795
632.753 83304386 83995082 84855150 85973780 86964364 87786326 88649251 88954455
648.186 88927030 89825547 91188763 92709733 95607024 98380903 100188719 104432698
663.619 106221302 94160813 77232633 78737133 97123353 110001863 111791953 112404608
679.052 114030411 114756878 116916904 120527388 123332455 126294646 130350471 134205105
694.485 137657960 141368926 145123203 148755621 152133373 154810254 157131242 159670860
709.917 161958983 163866057 166197372 168250224 168347222 167911784 170181253 174562030
725.35 177672089 178971618 180281819 182008392 183639379 185307284 187023175 188504394
740.783 189861655 191315252 192873457 194480638 195965658 197142955 198106643 199172801
756.216 200583903 202302408 204118911 205955990 207829819 209659990 211432781 213282050
771.649 215222402 217085922 218777791 220410784 222114239 223815235 225430518 227118799
787.082 229014282 231038537 233214190 235647246 238198626 240684834 243095306 245288602
802.515 246935546 247807799 247871238 247477692 247474230 248537850 250569910 253097509
817.948 255812682 258554193 261231308 263826835 266337334 268798292 271252410 273642063
833.381 275898834 277890489 279161887 279350079 278928225 278758374 279007267 279326372
848.814 279812720 280945547 282846606 285260812 287998556 290929360 293804104 296454132
864.247 298923123 301123090 302791281 304172394 306126512 309108222 312760677 316717603
879.68 320854690 324801384 328182798 331107369 333790157 336196980 338349465 340411422
895.113 342424012 344368825 346354697 348456443 350546548 352495563 354368711 356249432
910.546 358087401 359898125 361822609 363833702 365727867 367493218 369297333 371117041
925.979 372815843 374476538 376187638 377765367 379152500 380654779 382423058 384258806
941.412 386076978 387997876 390030192 392070479 394088123 396117544 398142094 400070529
956.845 401827113 403291279 404230694 404760254 405630804 407430253 409908031 412517719
972.278 414993272 417255822 419356657 421417459 423399603 425210981 426907882 428536066
987.711 430069212 431560153 433064369 434509301 435770242 436731297 437322910 437666073
1003.14 438079374 438774906 439615722 440362062 441066871 441912041 442767110 443352292
1018.58 443716062 444093140 444455852 444641121 444749091 445027151 445488306 445963263
1034.01 446431926 447024948 447759014 448503091 449185415 449899043 450816876 452029860
1049.44 453458505 454964753 456493440 458013604 459476881 460917754 462350349 463591182
1064.88 464509442 465272604 466014602 466616843 467070358 467573657 468163572 468728555
1080.31 469296373 469947280 470693292 471569344 472519193 473353075 474113587 475075240
1095.74 476209631 477203381 478005999 478772959 479433111 479862494 480205291 480581467
1111.18 480871555 481108869 481576391 482307283 483047501 483783560 484766465 486064148
1126.61 487515288 488973511 490325460 491488340 492548008 493651191 494700034 495462350
1142.04 495950851 496312395 496516526 496552986 496633713 496957611 497598390 498514503
1157.47 499469303 500333826 501327314 502564575 503960545 505629158 507446362 508741764
1172.91 509390008 510165543 511378934 512502667 513255228 513717515 513772652 513455246
1188.34 513105292 512670374 511711942 510058769 507857866 505475636 503460820 502093399
1203.77 501376196 501367413 501758479 501981936 502064950 502057293 501678087 501769611
1219.21 503430265 505284511 505188735 503723424 502669911 502209087 501938351 502132358
1234.64 502914740 503995850 505223014 506503992 507724894 509069495 510761674 512360420
1250.07 513238427 513827851 514890052 515793132 515670811 515497568 516547113 517897792
1265.51 517476581 514741655 511644129 511311087 515046346 520544920 524441601 526207229
1280.94 527631984 529079118 529078569 527900730 528207193 530871465 533450943 534182924
1296.37 534220450 535013199 536264714 536870911 536644651 536670920 536825143 534758399
1311.8 530399325 526660143 523191843 518524556 517178638 522311871 528124936 530287661
1327.24 531230562 531413381 530225485 528608706 520634524 501447156 485690749 491821329
1342.67 512571256 525457634 524339982 520927866 521191850 518907778 513770082 512472071
1358.1 506801428 485092453 464910962 469747071 488057134 496956201 492966008 478353436
1373.54 462087855 463806311 481332302 494097041 500459513 499651524 479803907 460353455
1388.97 469173560 481052717 462860906 434413246 426207412 439674364 461573863 473477352
1404.4 472350395 478428131 492074219 495245373 493712151 486397466 449775172 404373264
1419.83 400325685 432757677 462828913 476405450 474105034 466177269 465178924 452999558
1435.27 419629389 409607355 447293324 486251856 490102586 474055049 456209407 447613238
1450.7 455892654 449011669 388821473 322936027 337843607 412494923 447712588 435063000
1466.13 444337597 466586987 436331029 374723012 360893917 404850117 453854598 477925908
1481.57 486312447 485921350 460630825 408739272 375990774 395728016 423929116 407133718
1497 374965174 387246135 426520284 415909164 336441578 269852500 291428977 363315085
1512.43 398831817 384874070 359314464 332700566 309350621 309676576 331882950 361595243
1527.87 395422807 410491123 390593810 373548902 372659373 336552670 270035958 252316072
1543.3 301706031 365250600 408750918 423339593 414104455 396662558 356713246 284300965
1558.73 243199299 291810243 383437175 433734477 423211182 398458907 405579048 424038549
1574.16 406153197 380509691 408114957 463975036 487974294 486472026 488163399 487904747
1589.6 480045515 472409938 465994685 461338210 461785793 460855117 453544538 449264335
1605.03 449726730 442409699 434784928 441543730 434576731 391224307 360738033 378869793
1620.46 397902464 387511746 381782546 394974177 413006377 428104686 413564356 358804463
1635.9 322248303 351521282 410050610 432226814 393548704 335059462 318266133 324251330
1651.33 289190722 252479651 301907419 395919441 426174922 398160114 390338532 404727988
1666.76 387607579 346653121 334469613 347080215 348579461 354424426 376563522 364226648
1682.2 303750422 267481533 296281308 348242645 378055497 374366056 340596165 292806706
1697.63 254862201 244403180 264535135 296717661 318797461 333992202 351918428 356121266
1713.06 326460148 277591319 250698126 270456928 316494242 347140762 350487583 345249437
1728.49 333890620 300443993 257783192 245033270 267775169 288710603 287989162 285352521
1743.93 291607296 287780981 268300646 259000444 274738162 297184655 306617400 304174885
1759.36 298979363 297996314 304685989 311903861 304978349 280521601 256031894 254603719
1774.79 277025474 298456073 302475636 298620778 297611080 299006031 301069984 295057247
1790.23 272796951 253549575 260547405 277509143 277199338 267377174 268237082 277809892
1805.66 282574293 276797970 266493838 262225289 263299529 259496790 251316834 245931275
1821.09 239506850 227812513 217154254 209592925 202569226 202685048 212121711 217721542
1836.53 214630491 211493706 205485149 189573497 176514735 180010240 190898220 195942543
1851.96 195944816 194969365 192953090 189971950 187029824 184889200 181614218 172414705
1867.39 159774206 155556664 163151871 171297126 172369902 170307408 168536877 166036513
1882.82 163413135 161019217 156546408 151104404 149059317 149741107 149118203 147689671
1898.26 147658269 147431032 145555345 143403448 140969591 137271148 134538645 134654097
1913.69 134105152 129649269 124587262 122737609 122376903 121555237 121584386 122202196
1929.12 121279789 119124074 117184272 115550705 113847037 111047475 106519465 102783424
1944.56 102418680 103724237 104002642 103180744 101875721 100206628 98494620 96871722
1959.99 95481600 94532911 93264488 91226899 89858054 90073709 90556187 90271677
1975.42 89866356 90003142 90607891 91407561 92075784 92404755 92288481 91537374
1990.86 90677688 91020525 92587535 93674688 93436480 92692145 92010471 91206373
2006.29 90342087 89782092 89679963 89661275 89032546 87905772 87348214 87707365
2021.72 88192419 88350445 88426746 88540352 88557395 88433843 88416043 88860826
2037.15 89599582 90117656 90561650 91442491 92598999 93698772 95050255 96940925
2052.59 99013523 100782526 102109261 103076890 103737630 104076448 104323566 104996407
2068.02 106211728 107477973 108538224 109654559 110918209 112115965 113188416 114211600
2083.45 115183661 116064532 116751761 117063116 116886786 116297458 115628191 115362128
2098.89 115705945 116370291 116886715 117068068 117174449 117529500 118014382 118308046
2114.32 118413539 118445841 118243523 117553311 116285028 114530405 112486741 110220921
2129.75 107588236 104567418 101504306 98902828 96987853 95474625 93933181 92339534
2145.19 90957668 89831802 88765568 87614634 86296213 84744248 83176488 82163938
2160.62 82080363 82734824 83744750 84827705 85691604 86159886 86329697 86362094
2176.05 86346772 86323195 86292514 86406977 86907189 87650791 88259975 88764840
2191.48 89426658 90143672 90641673 90933131 91173771 91408362 91716759 92219574
2206.92 92779102 93188612 93614093 94220695 94744622 95064146 95473545 96040673
2222.35 96589137 97218521 98041266 98841987 99463092 100023988 100658466 101388631
2237.78 102195126 103059970 103952539 104824578 105675206 106502302 107179914 107645865
2253.22 108132599 108937050 110069476 111246492 112186842 112951215 113896680 115251127
2268.65 116956732 118901664 121063716 123465322 126145886 129246133 132941858 137010485
2284.08 140802817 143996166 146742552 148941577 150307962 150985978 151222306 150966114
2299.52 150264637 149153851 147042107 143263206 138212863 133054170 128560899 124829510
2314.95 121275393 116567857 110252288 104478053 101654831 100686620 98245233 93386948
2330.38 88632635 86254711 85085944 82843468 80109532 78344176 77578778 81113195
2345.81 93767485 108869640 110425332 94724782 74787433 60990561 52802737 48153960
2361.25 47179851 48965881 52459252 58011666 66009712 76601730 90110939 106302461
2376.68 124307301 143249664 162097442 179189074 192466384 200606874 203989306 204208124
2392.11 202837981 200797602 198401798 195822546 193353487 191038556 188642973 186263672
2407.55 184284795 182732050 181262051 179671558 178079544 176646788 175314255 173958457
2422.98 172611771 171339715 170116048 168897692 167696957 166610280 165713194 164950772
2438.41 164319745 163921797 163677686 163366639 162951660 162593511 162478087 162628774
2453.85 162793474 162747460 162587026 162436706 162195619 161783826 161303469 160855850
2469.28 160387050 159793127 159122345 158507115 157929119 157300366 156674628 156142621
2484.71 155679224 155224714 154754462 154260286 153792893 153427872 153089702 152636752
2500.14 152186605 151932638 151675619 151167299 150666298 150440139 150251236 149942705
2515.58 149772544 149783685 149644098 149275759 148976265 148896386 148891740 148855039
2531.01 148820314 148797144 148758546 148680049 148517738 148342391 148360059 148595287
2546.44 148829283 148946976 149045658 149224254 149477637 149758311 150052743 150387883
2561.88 150812283 151375024 152013044 152593530 153203161 154015359 154878185 155627918
2577.31 156513112 157691350 158888447 159957149 161063186 162257578 163509439 164937163
2592.74 166557943 168187311 169819052 171658841 173708314 175786779 177913150 180208406
2608.18 182619450 185128932 187883446 190861385 193855079 196848336 200003781 203393890
2623.61 207031461 210930079 214988980 219070901 223212185 227573656 232257228 237219753
2639.04 242271993 247295145 252465978 257938016 263482029 268883025 274269257 279651553
2654.47 284730065 289352391 293552212 297144432 299726924 301041231 301251763 300894084
2669.91 300402393 299791849 298966203 298009873 297002774 295902071 294715049 293539122
2685.34 292440981 291440449 290498567 289465315 288254935 287047644 286035168 285109013
2700.77 284093576 283029658 282010844 281031623 280043086 278947460 277704976 276502722
2716.21 275494593 274506089 273364213 272197741 271108088 270004552 268880190 267741653
2731.64 266459336 265121956 263998160 262917094 261474523 259814951 258417441 257359960
2747.07 256346911 255139578 253712179 252199834 250751727 249414076 248163381 247001927
2762.51 245981680 245057327 244045377 242944298 241936350 240906998 239595893 238144494
2777.94 236799549 235470417 234042468 232582050 231123561 229616712 227962943 226141424
2793.37 224368434 222809243 221365744 219999368 218700806 217285082 215864045 214889370
2808.8 214306211 213578315 212573141 211561970 210653871 209797753 208976922 208204134
2824.24 207501465 206806425 205971543 204994072 204018707 203099539 202146735 200933489
2839.67 199184842 196930093 194435479 191689536 188732558 186364528 185396324 185462285
2855.1 185607420 185470669 185085607 184394098 183550679 182852416 182232880 181562614
2870.54 181009585 180464316 179454039 178040385 176811201 175938512 175128490 174203792
2885.97 173155985 172021662 170886527 169785790 168695838 167559490 166257692 164813266
2901.4 163398076 161959290 160363842 158762541 157195392 155336789 153062446 150665312
2916.83 148464416 146682097 145468095 144794455 144558167 144709699 145067481 145261506
2932.27 145153142 145049645 145145694 145156959 144952215 144854126 144847281 144438228
2947.7 143604134 142818339 142089280 140998859 139609093 138472609 137800039 137286683
2963.13 136728462 136180449 135590126 134913262 134351252 133962908 133535093 133059176
2978.57 132655801 132141081 131304456 130292456 129390440 128773360 128437392 128224711
2994 128129888 128349017 128833397 129335820 129853327 130422314 130878270 131238736
3009.43 131643212 131822092 131400320 130553216 129725732 129023282 128354649 127887939
3024.87 127891947 128183156 128215738 127762610 126983962 125922342 124536707 123029111
3040.3 121667402 120512432 119467677 118416266 117377593 116498266 115742836 114871315
3055.73 113871011 113042576 112547275 112189760 111756069 111304489 110943041 110575445
3071.16 110137320 109796714 109614181 109324580 108769188 108216140 107907740 107654924
3086.6 107303431 107077382 106938457 106396488 105490197 104902925 104760951 104556126
3102.03 104285259 104369517 104675138 104745785 104600576 104484970 104381859 104290687
3117.46 104356216 104451421 104289241 104003256 103997158 104281963 104449376 104275330
3132.9 104117178 104552751 105538094 106323533 106508666 106529263 106785023 107190649
3148.33 107774159 108669481 109558715 110112802 110632913 111478854 112477507 113384695
3163.76 114277772 115317816 116569377 117977889 119364754 120571152 121588673 122557065
3179.2 123616604 124651431 125444302 126076471 126626079 126827839 126638302 126409430
3194.63 126229843 126030810 126074269 126476996 126879530 127027679 126998289 126877179
3210.06 126693702 126454308 126116976 125666476 125082847 124331812 123534087 122812011
3225.49 121990745 120960804 120097115 119666395 119217783 118319011 117361168 116822677
3240.93 116442642 115920596 115578711 115642434 115735061 115562442 115370264 115475363
3256.36 115860327 116349316 116863977 117414639 118040695 118828668 119795485 120742474
3271.79 121470636 122119819 123057243 124425845 125963839 127354283 128608496 129869435
3287.23 131073879 132200343 133477584 134942690 136277111 137321143 138259029 139311898
3302.66 140613413 142148329 143655834 144954804 146343208 148257962 150593579 152813458
3318.09 154753088 156748883 158850636 160601095 161749922 162466691 162794003 162514183
3333.53 161535392 159995513 157901273 154844271 150470472 145294778 140514808 136973815
3348.96 134687167 133115830 131696365 130369628 129380264 128546352 127396953 125897676
3364.39 124424996 123279659 122483443 121854198 121338331 121217970 121843341 123325577
3379.82 125377596 127475324 129620303 132420768 135897058 139309473 142431022 145670737
3395.26 149171337 152774034 156173114 158760697 160149411 160626360 160573654 159968010
3410.69 158591247 156261828 152770896 147782582 141375908 134917270 130219997 127432256
3426.12 125170659 122611166 119903800 117290575 115110197 113608503 112319782 110762474
3441.56 109108731 107312522 105125970 103273090 102534066 102074789 100780748 99100102
3456.99 97798296 96597802 95309673 94452374 94164236 94069745 93979399 93669173
3472.42 92937521 92277615 92093931 91679838 90602092 89899920 90238477 90640645
3487.86 90505310 90623777 91101904 90972893 90421928 90318134 89897635 88390807
3503.29 87430487 88211919 89038072 88857005 89249612 90742791 91708471 91564047
3518.72 90916492 89645900 87853082 86529274 86120350 86653366 88317868 90212948
3534.15 90809388 90431235 90656417 91203342 89954282 86666728 84437804 85358816
3549.59 87046246 87117588 87440231 89324152 90110140 88665120 86795929 83484659
3565.02 77187539 72892847 76283461 83774441 88040963 88411842 87992331 87459826
3580.45 86875095 85879150 81674308 75053316 72970825 77088735 80096113 78888426
3595.89 78031143 79082360 79968375 81177756 82316466 80231463 75745163 73134665
3611.32 73015529 73343332 73263463 72081292 70839636 73578615 79347341 79331210
3626.75 70590315 63385882 66451443 75337684 82103997 85798695 88196539 88906978
3642.19 87594515 83304661 73563298 62114200 60033341 69524369 78729298 81338789
3657.62 84100645 89847907 93615796 94308005 91927692 83631832 73694352 69607151
3673.05 68200472 65473212 68164533 78960937 89086258 92932685 90974431 82930694
3688.48 73493868 72431911 80652271 89641648 94112075 94083427 91038303 88918033
3703.92 90822090 92710023 88242844 79680458 76872692 84115663 93828243 96952115
3719.35 93802141 89533989 86388049 85465977 87407184 88415125 83714783 74858892
3734.78 69056421 72628480 83074266 87945226 80894952 73067894 74025438 75857307
3750.22 73386339 77423168 91460276 102006677 103465263 105456346 111383339 114410644
3765.65 112763789 110813499 111561803 116920617 125290466 128971903 124844545 120598871
3781.08 122209298 126233553 128804047 131326900 135151715 137302032 134192130 127581590
3796.52 121259981 114112922 106606952 105759546 111595512 116023000 120977633 131177080
3811.95 135649310 126328496 115089582 110430477 107362365 107441400 116255762 127231684
3827.38 131701023 130962602 128274353 123286105 115604374 107804058 105920292 112959937
3842.81 123840001 133598020 140603227 137742997 119102429 97349497 94440635 113220542
3858.25 133386130 137796988 130881454 125818759 125012688 123019457 119920943 121822789
3873.68 131017708 140572487 142096370 137352961 133627150 132324152 133109773 137475157
3889.11 141245159 141031610 143474964 149660527 148095190 136337096 125839765 123648340
3904.55 130065353 144004055 158544626 165804434 166008287 161617511 154318666 150380528
3919.98 153235975 156613363 156763931 157876183 159936484 158305214 155455736 157915836
3935.41 164775257 169343309 168161148 163869516 161434821 162094656 162806099 162937184
3950.85 165301444 169374592 171658959 171856939 171664354 171329798 171446824 172844728
3966.28 174226312 174257797 173657726 173197124 172974962 173470133 174680452 175629878
3981.71 175943624 176220099 176592774 176493409 175922977 175606719 175823893 176278266
3997.14 176835963 177406560 177782076 177920347 177672070 176936380 176407339 176774125
4012.58 177535194 177870009 177769690 177660311 177743994 177822740 177705967 177758452
4028.01 178250498 178620043 178479630 178291648 178341191 178410761 178408758 178235990
4043.44 177816013 177656702 178218245 178970327 179191955 179074873 179136850 179275524
4058.88 179175829 179030677 179157246 179409433 179527474 179536872 179466452 179265614
4074.31 179083263 179103868 179267310 179462421 179658186 179740088 179594520 179368932
4089.74 179371215 179673557 179979016 180025371 179976675 180089822 180181274 179949441
4105.18 179628807 179692111 180087260 180378422 180429775 180433901 180523690 180708101
4120.61 180902509 180921218 180751877 180674791 180796823 180833510 180657984 180589177
4136.04 180823917 181084515 181128722 181092856 181111094 181155878 181301344 181571255
4151.47 181722104 181639461 181539400 181566785 181664854 181771470 181830914 181828343
4166.91 181822697 181810914 181804921 181905817 182013622 181906138 181712782 181705363
4182.34 181781848 181712561 181560673 181507039 181577329 181665793 181676078 181640906
4197.77 181646191 181648041 181577823 181519555 181536921 181552816 181551556 181587104
4213.21 181614926 181612038 181624305 181537977 181257340 181067141 181226709 181419931
4228.64 181235880 180898123 180902918 181186972 181264253 181050860 180919732 180988061
4244.07 180997240 180846567 180676451 180558796 180494011 180501948 180559121 180636951
4259.5 180719977 180681998 180409276 180082826 180003711 180153995 180260863 180208619
4274.94 180066770 179873720 179685878 179632614 179723254 179798413 179722229 179480193
4290.37 179151751 178855785 178666516 178596464 178636265 178724657 178731868 178583111
4305.8 178388069 178302777 178235735 177977361 177639802 177498923 177487632 177404622
4321.24 177326022 177300369 177120624 176736079 176380854 176202029 176146917 176110106
4336.67 175996775 175816788 175694376 175634716 175498156 175290645 175128240 174940460
4352.1 174634586 174375357 174292015 174242211 174125094 173982550 173770052 173455833
4367.54 173146380 172875745 172584312 172275152 171948900 171626142 171439190 171392394
4382.97 171282495 171048006 170806952 170584213 170348665 170098318 169778656 169389197
4398.4 169045852 168795827 168642739 168622547 168586064 168289175 167816749 167443916
4413.83 167194188 166953856 166741137 166565196 166296878 165858947 165381084 165031800
4429.27 164774431 164477580 164180406 163970171 163739564 163355083 162890269 162505933
4444.7 162248146 162018675 161697500 161314768 161010230 160797540 160548248 160180820
4460.13 159696648 159164572 158770924 158629026 158524705 158178321 157648370 157153603
4475.57 156762023 156473524 156223572 155807039 155211347 154753776 154562528 154382193
4491 154045106 153634098 153191449 152677790 152140623 151677726 151312513 151002829
4506.43 150685455 150296848 149846020 149398181 148925353 148383402 147900389 147569315
4521.87 147257859 146894874 146555225 146186560 145706450 145214405 144802627 144442007
4537.3 144086411 143656593 143109225 142568678 142147973 141763073 141294806 140782443
4552.73 140348895 139975160 139504707 138955988 138531058 138214733 137797979 137290700
4568.16 136863875 136521844 136135571 135604962 134936054 134321278 133952107 133687633
4583.6 133261753 132737410 132310543 131883693 131294738 130663139 130153397 129737111
4599.03 129353142 128992532 128633430 128247824 127770804 127147995 126515442 126055648
4614.46 125682767 125224201 124736014 124299156 123806499 123211261 122658851 122243268
4629.9 121900615 121518486 120996782 120362410 119821286 119462628 119095404 118594399
4645.33 118080676 117636337 117199384 116737556 116251370 115699373 115079241 114484033
4660.76 113989090 113549065 113106333 112706365 112338585 111868697 111315047 110840090
4676.2 110391074 109826657 109297058 108986515 108719084 108242229 107602887 106969266
4691.63 106381331 105846461 105421522 105075844 104672330 104174730 103699832 103295051
4707.06 102858295 102354386 101881067 101446832 100955548 100432975 99966382 99502783
4722.49 98992929 98549883 98249653 97970563 97550913 96992288 96406153 95796875
4737.93 95141316 94627295 94361856 94065854 93565954 93078129 92680591 92233544
4753.36 91790646 91416463 90961580 90377876 89796691 89323708 88998940 88685545
4768.79 88142524 87479877 87067043 86884964 86555797 85947976 85274371 84746351
4784.23 84415685 84201571 83939312 83513969 82979091 82465337 82017785 81602500
4799.66 81206061 80865668 80602941 80327660 79920269 79445118 79050021 78676351
4815.09 78187169 77661533 77242266 76880650 76472284 76055331 75723818 75472422
4830.53 75201920 74814537 74301370 73785599 73411218 73147314 72855663 72535807
4845.96 72251141 71908487 71408527 70864970 70437922 70119430 69802101 69417187
4861.39 69000986 68688636 68528555 68315120 67829657 67200802 66754663 66576562
4876.82 66446611 66121105 65582064 65073015 64802379 64624948 64261846 63748093
4892.26 63374684 63279082 63282341 63108457 62700866 62228783 61816174 61474073
4907.69 61198609 60916226 60550026 60222164 60043803 59812653 59348095 58876410
4923.12 58649530 58514151 58254275 57973605 57778646 57498501 57031150 56561845
4938.56 56231341 55973249 55755799 55616285 55466878 55188295 54840003 54506947
4953.99 54106946 53624613 53281920 53189415 53128122 52904263 52594728 52320561
4969.42 52081676 51839232 51563379 51266455 51036853 50881155 50614098 50146509
4984.86 49714821 49526161 49403523 49107701 48736147 48478650 48277816 48033023
5000.29 47835877 47739930 47606028 47373190 47139811 46892547 46557106 46248260
5015.72 46061466 45871871 45652437 45563041 45550937 45344056 44900288 44484070
5031.15 44291408 44237052 44145054 43963171 43684769 43301340 42949826 42769563
5046.59 42618249 42335656 42088045 42047072 42052240 41891725 41593580 41302161
5062.02 41113355 41030201 40925410 40634556 40184484 39794718 39578402 39432146
5077.45 39298345 39254987 39236007 39042519 38753467 38638154 38590881 38254037
5092.89 37675551 37220535 37000435 36881546 36756165 36559425 36313090 36105898
5108.32 35899553 35610060 35306477 35072757 34883732 34724096 34616974 34532414
5123.75 34357511 34023739 33701151 33609543 33615863 33452668 33179857 32951276
5139.19 32671732 32255736 31854901 31665566 31719515 31837039 31766661 31443622
5154.62 31035400 30739882 30602283 30497686 30344673 30233594 30133396 29834642
5170.05 29473289 29441033 29572227 29363803 28956591 28791263 28670064 28265554
5185.48 27906530 27949514 28111944 27985656 27585698 27197152 27060213 27157354
5200.92 27145696 26637431 25686736 24920512 24953135 25671726 26365823 26510952
5216.35 26190510 25798185 25441992 24878756 24209527 24005444 24338245 24578478
5231.78 24465188 24360123 24389860 24301600 24051138 23787318 23440020 22904235
5247.22 22450111 22384950 22503700 22469480 22407803 22518738 22554070 22212710
5262.65 21689329 21471208 21701038 21999959 22077379 22123821 22257642 22189178
5278.08 21776022 21272090 20933048 20834347 20870883 20779997 20491384 20295021
5293.52 20394800 20599581 20620705 20471003 20388941 20329193 19949684 19379871
5308.95 19223347 19480868 19531824 19261169 19069644 19050321 19047883 18978805
5324.38 18703339 18199443 17772035 17660648 17717876 17567108 16994342 16344079
5339.81 16149476 16244391 16134326 16054115 16381381 16576214 16108902 15612638
5355.25 15817969 16280828 16275814 15999508 15973066 16148354 16247925 16201248
5370.68 15978318 15575950 15118315 14806851 14910686 15385552 15571417 15150107
5386.11 14821193 14995582 14985488 14382812 13810272 13769540 13995108 14110692
5401.55 14097814 14070244 13956843 13595166 13070101 12637007 12425403 12529551
5416.98 12964537 13386382 13477638 13349775 13051627 12494343 12026587 11961770
5432.41 11956711 11841181 11958919 12166252 11978225 11588744 11402456 11294821
5447.85 11178723 11273536 11543018 11705324 11624131 11316165 10939458 10756947
5463.28 10827819 10931012 10894903 10774537 10647324 10430394 10085000 9851892
5478.71 9959601 10225686 10293067 10117935 9920049 9811018 9773275 9853463
5494.14 10032322 10070684 9843851 9588079 9522113 9542559 9463370 9268607
5509.58 9083641 9027415 9073476 9099813 9053634 8934163 8743616 8579434
5525.01 8568135 8655928 8673264 8564827 8368315 8086920 7776286 7600166
5540.44 7631850 7769005 7871599 7794083 7466164 7101769 6970233 6974094
5555.88 6907937 6862271 6903376 6822680 6583839 6465058 6524959 6494100
5571.31 6292676 6121068 6065898 6068524 6107894 6104444 5964381 5829160
5586.74 5880465 5989807 5927702 5720072 5559191 5526972 5521026 5447411
5602.17 5411984 5522486 5590928 5370618 4993431 4816519 4915017 5045184
5617.61 5048546 4977284 4881680 4806926 4872558 5028199 4981923 4641760
5633.04 4290302 4174409 4244781 4304690 4225033 4084512 4047547 4055466
5648.47 3955845 3865619 3921061 3950201 3873469 3897542 3989502 3864868
5663.91 3593273 3522193 3701983 3876757 3843793 3600747 3314885 3180202
5679.34 3232773 3347195 3408161 3420537 3426859 3408087 3357746 3309104
5694.77 3225040 3077538 2969078 2952718 2931655 2842908 2715993 2619688
5710.21 2648364 2769414 2792280 2677501 2604358 2640627 2666012 2607261
5725.64 2489972 2353317 2265292 2268652 2291186 2306386 2403086 2474265
5741.07 2274833 1962191 1929342 2103247 2132167 2036441 2037982 2093261
5756.5 2039704 1943851 2024704 2262660 2321096 2050085 1777037 1792468
5771.94 1891613 1762556 1534931 1575223 1871903 2015334 1794355 1452835
5787.37 1319907 1449169 1641794 1694574 1566450 1353551 1253181 1434241
5802.8 1741525 1819486 1670477 1481197 1359403 1409407 1490813 1441110
5818.24 1275745 1227459 1319310 1389257 1459796 1438910 1304382 1173732
5833.67 1124184 1090056 1077749 1160478 1241193 1193917 1153404 1310577
5849.1 1324788 1223576 1085428 973048 848110 807123 691186 826001
5864.54 909866 934817 878978 969600 993018 936090 907840 900205
5879.97 923525 848199 764112 757573 843905 861415 711560 495860
5895.4 518353 463229 405481 539006 614596 700634 774656 725499
5910.83 641204 549336 702471 826697 680575 623808 572386 538883
5926.27 678178 633937 468698 365457 453267 514118 550817 562118
5941.7 551688 546226 607432 601076 589167 614991 641497 660622
5957.13 540311 404462 498357 509342 499712 557230 505590 444436
5972.57 393653 395343 449414 536887 527897 432107 439281 459793
5988 427208 341685 294110 363810 471262 504943 515566 516832
6003.43 505908 436256 541020 612919 554049 512948 478941 503819
6018.87 457548 404792 404604 421779 423777 435579 482811 476351
6034.3 423017 410377 422000 443602 510527 517662 455171 460583
6049.73 423184 337765 328203 397344 516313 704178 647038 468169
6065.16 402296 431641 321012 253165 322208 345805 466740 466953
6080.6 500190 525394 500777 462170 344467 302349 397771 502177
6096.03 504891 612974 630277 574314 484332 484167 548529 600140
6111.46 351215 256330 351342 487672 456983 490257 405522 486882
6126.9 463350 445643 533502 497339 372885 435035 478960 416787
6142.33 479851 491900 601464 567279 573708 520068 510539 550163
6157.76 573410 541287 586873 564274 432895 418487 422416 434748
6173.2 485738 590160 604523 584904 593611 524624 365222 323422
6188.63 415306 378506 341534 360289 388285 516752 570094 547432
6204.06 572875 468719 450922 563841 667651 614097 587887 539320
6219.49 484850 492077 437629 478930 602057 552219 519858 548779
6234.93 627599 413378 345597 350742 437258 563454 594932 506396
6250.36 390683 455494 443835 545634 675825 741761 649229 438333
6265.79 465197 461001 456475 408115 368140 380114 425240 488331
6281.23 619946 572710 376644 322352 372448 447574 473383 437124
6296.66 454359 530566 522558 443740 389431 460899 537466 535155
6312.09 458046 357477 415096 545964 570694 537894 645270 674622
6327.53 495817 391791 382733 397016 516317 543990 476694 425480
6342.96 426807 347242 457898 657474 585866 386775 418024 398088
6358.39 424956 511090 543658 532175 530922 587556 599615 592166
6373.82 620146 514086 278663 409037 562729 729004 713174 687763
6389.26 550039 468569 466337 571737 641799 664478 706252 700424
6404.69 577902 504031 529475 455644 494030 483039 549467 534160
6420.12 439253 399380 381882 320653 330103 376685 336521 426549
6435.56 390403 349486 515779 558898 626014 494513 451801 395993
6450.99 455449 542712 593212 593928 571190 445104 442946 585111
6466.42 590441 407818 373324 453297 462316 476380 519429 602929
6481.86 594552 562001 513600 513224 438502 377521 471283 553288
6497.29 557361 570962 607825 553666 423918 352147 386410 471256
6512.72 551608 620577 537781 570623 541921 426183 449184 497802
6528.15 454459 448379 491114 443456 364474 368386 495787 555842
6543.59 543642 662399 685096 505463 380045 334495 370756 454455
6559.02 399349 371481 374084 370763 376948 437521 522874 471073
6574.45 413941 389382 422623 452168 473277 422972 425926 479031
6589.89 409039 374634 494545 541168 526911 465268 479506 437418
6605.32 495535 555051 522440 506454 418572 433522 438325 396096
6620.75 371664 357320 371761 431274 462459 475487 431851 351962
6636.19 327111 355252 435334 478002 450038 445688 415984 465364
6651.62 597208 659450 542728 390558 386250 489737 594623 529773
6667.05 395459 426470 589976 676405 547133 512137 391240 324621
6682.48 479089 544507 577982 543982 390856 365803 456877 452613
6697.92 448374 345187 368762 413821 561263 611775 473623 438538
6713.35 549564 503783 398086 471698 529249 378354 340180 466313
6728.78 501599 542024 540031 476992 401031 395451 361144 435667
6744.22 462495 457559 461682 405443 486464 537735 457728 417217
6759.65 471911 469708 363137 497930 494052 401043 424986 407017
6775.08 514828 580759 504416 404012 395079 456077 508442 617133
6790.52 652650 612949 530733 507998 471735 418455 413814 447676
6805.95 481977 544947 581705 491424 361766 268112 375113 368182
6821.38 420138 411047 503096 497557 522763 580748 540264 552198
6836.81 549171 581027 523303 489624 437543 289903 357398 448364
6852.25 506586 506629 460581 512125 652338 631196 589887 542289
6867.68 433010 410069 432949 432767 500305 550237 481316 368674
6883.11 366516 389020 309174 277022 383237 513203 619405 595065
6898.55 516030 400697 404414 553054 594326 535950 523562 510641
6913.98 403396 400591 527157 509030 441607 398004 505124 488159
6929.41 486908 491140 429220 358778 406153 539457 443816 349522
6944.85 469972 562822 483916 436941 340982 338537 387512 475916
6960.28 583049 595651 593043 508225 489886 433386 361016 376240
6975.71 513166 558416 425054 458764 447945 408389 433029 385386
6991.14 299223 248376 419497 465053 482190 428630 366439 399196
7006.58 449970 506886 510205 528664 529048 539531 476189 383469
7022.01 402671 521321 496542 429068 427850 419993 413367 403659
7037.44 440090 458620 516499 513746 463943 560339 623370 550448
7052.88 541993 538386 507882 430942 393652 454331 439557 527982
7068.31 411257 356630 315057 338333 340918 470465 609394 602347
7083.74 644556 593358 559921 522133 465428 470097 434163 452435
7099.17 391798 393006 384801 465909 462911 403371 381903 359635
7114.61 393825 386847 409649 453747 490291 678249 580522 390032
7130.04 362781 496417 472531 419419 465844 398478 360034 464515
7145.47 440440 457000 535090 517980 508147 573068 542870 392133
7160.91 334652 427387 499484 447247 513410 461348 438673 424456
7176.34 324175 449165 594635 626477 518696 413860 310100 413591
7191.77 421619 338796 391120 428236 447281 496034 557766 632364
7207.21 580443 445743 386628 416706 500834 504316 370915 362381
7222.64 471078 511141 526839 525763 567107 579185 441423 398235
7238.07 395794 407303 498540 468124 362953 349297 491526 553871
7253.5 554562 629977 648655 698651 512436 372831 369919 396280
7268.94 423393 414421 347566 416364 414638 295513 306204 377015
7284.37 405481 273379 416439 633389 611141 500884 518358 428854
7299.8 441834 455983 382562 438254 527690 539462 421314 373698
7315.24 368215 399347 432030 419894 429512 497583 473592 500720
7330.67 497354 512044 515785 526626 421808 405033 433204 445497
7346.1 353282 367872 384577 398453 532586 583875 552310 537163
7361.54 535473 484917 530074 414204 318531 343744 442249 475667
7376.97 480555 526672 426178 379244 410485 386047 361706 432493
7392.4 425495 492189 468355 368234 367411 371493 458158 437106
7407.83 419392 392736 382699 467640 568308 515703 430002 407045
7423.27 391477 370592 375097 491561 501637 343983 289616 375528
7438.7 480938 554688 563652 584393 687022 652888 571699 537491
7454.13 479412 482621 577958 608156 421861 343050 336206 345672
7469.57 405908 468159 448425 493722 561897 485777 345934 377888
7485 499548 356159 432317 455418 425249 435270 511836 555197
7500.43 516558 669550 655976 582336 492821 449341 476873 469686
7515.87 523527 594369 566855 440267 449888 450071 454364 689977
7531.3 662448 558326 560716 463546 533383 518843 372566 339792
7546.73 422267 504423 530137 442372 374913 316003 431864 526710
7562.16 474281 571179 487132 305512 326407 375327 449758 453937
7577.6 385229 334933 418602 478998 523544 509989 455311 362673
7593.03 386440 423893 475090 473186 447558 402318 425939 466100
7608.46 479678 453443 483928 575532 712539 605229 418303 329511
7623.9 336990 354468 435585 488412 371057 339517 401387 361680
7639.33 507348 516068 482221 520574 492178 416466 508480 623940
7654.76 567694 481620 487651 456129 424958 405050 318199 266830
7670.2 348947 379654 384177 369861 345101 388337 470929 420110
7685.63 414597 493677 601168 550653 506486 385028 295982 288164
7701.06 326072 386368 483370 552768 601655 550594 437318 395341
7716.49 377195 343145 412961 472793 495496 447071 384761 313244
7731.93 302770 296769 325471 371997 371788 316356 341201 395300
7747.36 489254 528577 425464 313328 312350 348597 524896 544303
7762.79 458614 478474 455320 481560 390642 338513 378459 495802
7778.23 484354 477271 514894 388844 393353 462318 450854 497295
7793.66 491380 508044 506919 437469 501449 540831 451574 368951
7809.09 346305 332865 358248 383355 415327 418232 503562 639966
7824.53 620458 407237 312214 323305 363266 296794 349765 470566
7839.96 432185 348224 451491 364886 330294 331876 430714 402444
7855.39 498552 501464 381654 409591 336305 351002 375827 507479
7870.82 453244 379506 428958 452908 372328 359082 490447 486418
7886.26 440530 572829 565209 515888 583451 465181 272841 289706
7901.69 402698 521983 550189 569129 533527 556452 517344 562475
7917.12 567803 515278 452070 434669 429256 395978 413045 426963
7932.56 463999 415513 410542 533153 562750 468141 393328 429360
7947.99 518905 611729 549606 419830 434981 585880 635546 524491
7963.42 341075 402202 401325 459493 455957 321492 320985 381612
7978.86 427696 383476 414044 427655 427111 450852 398709 425171
7994.29 406166 275436 400877 494407 439503 483500 611325 513380
8009.72 465237 300605 289741 327548 318880 369995 459610 510754
8025.15 453744 456626 574564 493590 457359 462795 384991 398875
8040.59 523070 560335 425890 484107 610325 639745 585094 555481
8056.02 494819 429687 421272 408304 356184 364376 366068 289745
8071.45 333256 484707 480782 336065 341532 330613 397203 378393
8086.89 443594 482306 481403 465598 501804 439628 360200 443392
8102.32 465366 452630 453307 421951 301862 342299 429628 424066
8117.75 410368 409377 328411 265100 306001 335010 368344 403257
8133.19 436431 454055 451995 465949 552117 479358 465754 405397
8148.62 401259 493726 524634 538018 532327 553110 552703 512023
8164.05 478432 464701 480239 341870 273411 343229 414904 482097
8179.48 424103 447805 396626 403608 471951 484450 526730 581075
8194.92 494833 372285 340891 397046 522283 487557 453280 461258
8210.35 466828 493800 426024 378680 429683 519759 445256 406434
8225.78 359615 339746 413017 460994 452026 533645 577733 411576
8241.22 302881 302573 319602 349172 429478 392860 391591 458724
8256.65 491981 420281 369333 362827 247930 275875 409080 506839
8272.08 473753 377757 373978 415209 421236 416241 353947 318890
8287.52 357919 395168 380330 317375 330020 264168 209910 340235
8302.95 399185 287553 305592 357918 338591 300688 294543 399648
8318.38 483609 443590 418689 412279 364643 389174 391385 369637
8333.81 309777 273057 451347 503791 461193 422040 512465 527154
8349.25 479796 544231 589719 511207 385779 275121 291968 285979
8364.68 377209 479069 476310 491786 572339 710228 597052 482468
8380.11 396592 340349 360527 343710 357682 414446 437324 341606
8395.55 250098 320235 460260 481145 305812 282975 360310 415105
8410.98 421234 345920 333181 425538 409884 411735 433580 420748
8426.41 375369 381479 445842 464312 421116 445863 469976 402798
8441.84 311686 319681 408399 426501 427054 467386 563588 393478
8457.28 384006 414471 412024 420753 551426 520463 579446 533333
8472.71 454039 362464 371381 496028 499611 358968 343358 415232
8488.14 365320 468100 493901 411322 412300 434355 519095 591711
8503.58 552135 472660 348171 434905 426310 383808 331237 383528
8519.01 348618 327671 427049 335731 336090 360072 406890 499949
8534.44 582446 544212 471834 468923 426511 325776 379988 474201
8549.88 444317 414505 538219 446895 323371 327409 419150 515268
8565.31 555353 527726 491790 498725 458584 467022 582020 539368
8580.74 480908 486541 355090 378763 391603 379339 469158 504945
8596.17 535740 508691 388337 376612 458545 550211 559136 540575
8611.61 498455 453231 383508 370413 371951 288568 342141 372250
8627.04 425286 445109 510443 580001 578620 451429 404533 458011
8642.47 492026 468372 495696 532396 564158 507336 355732 460070
8657.91 461608 486063 500799 592053 591667 513814 512668 494410
8673.34 316960 285640 349061 451244 598953 645158 589537 487629
8688.77 413010 327668 420475 454439 409660 383506 398631 309161
8704.21 343365 409131 364039 400329 410788 474570 471192 459574
8719.64 522974 558216 449077 508067 605594 545533 461018 471209
8735.07 462859 461311 433820 463883 384404 358226 382822 435555
8750.5 471819 386379 403537 372514 471883 445130 437897 463537
8765.94 404424 498034 621853 574936 487747 391721 378908 357486
8781.37 322735 367759 411257 393994 313933 310675 351586 430948
8796.8 446421 494963 507100 434504 397030 293811 227906 318719
8812.24 414247 444409 381622 339376 436521 384865 318376 298921
8827.67 326487 363835 313480 397227 487559 525878 469056 388921
8843.1 360773 315767 378537 441461 512572 464982 317034 316300
8858.54 338241 474742 462287 380110 359986 453315 393154 354557
8873.97 295858 361389 385309 359794 405530 429132 420378 388280
8889.4 422918 396910 360949 398354 355601 389070 484503 550767
8904.83 469218 397558 393366 383850 419986 457217 420774 423982
8920.27 416117 366339 300929 365859 469227 496713 490378 526265
8935.7 511927 421563 470531 380654 284781 331162 498251 611021
8951.13 546098 429599 379874 323292 341543 294302 303393 356221
8966.57 348357 445913 481338 397398 445626 423093 403254 442829
8982 465006 513118 364200 308155 354903 414138 447130 417308
8997.43 401354 385089 317386 325079 431267 465746 503319 477510
9012.87 471927 446754 378182 351791 406106 444142 459197 479006
9028.3 483126 376831 387106 342453 329459 346296 428759 464483
9043.73 495960 441882 387310 271319 333549 385199 366912 357885
9059.16 313395 344558 388844 372185 296589 245015 387746 477202
9074.6 451665 336313 278353 310614 385311 468917 444159 427234
9090.03 410053 468537 377045 449343 469296 306817 240118 386811
9105.46 373969 303894 347838 439575 417221 424834 488429 432511
9120.9 310475 359408 475865 495509 513915 530936 489887 395740
9136.33 381766 455013 474942 472063 509877 435037 365688 332703
9151.76 386122 434803 324130 270341 265618 236502 234367 348115
9167.2 394550 393113 311287 303513 354527 345596 362669 308085
9182.63 356966 321860 322784 363827 411522 402635 349386 411750
9198.06 492139 423448 377183 334026 423158 555246 503122 354936
9213.49 442980 393526 371628 372025 422626 399243 352746 410825
9228.93 312400 310650 352594 467547 443086 305162 329160 427296
9244.36 342151 430418 496804 494705 485306 457083 458700 424174
9259.79 388123 364032 342146 389331 476987 505631 477649 433147
9275.23 391026 338022 395601 398119 375861 420084 352650 360521
9290.66 431592 365428 365545 447735 501821 454212 389131 371399
9306.09 331566 282180 353250 409613 355581 326567 311775 357122
9321.53 435941 464034 417918 403876 371196 274926 377468 410759
9336.96 318425 350748 414121 425078 375120 405866 433174 366091
9352.39 443723 390229 292823 351807 376379 334947 314691 328306
9367.82 379952 322148 370583 339055 208439 225398 359285 420832
9383.26 424421 428454 354417 345987 316069 332669 339647 375967
9398.69 421975 352401 384289 315907 332005 340794 288695 301226
9414.12 269401 270112 311481 360905 360368 408559 314357 356583
9429.56 488716 501256 503816 499378 482922 472302 341208 283782
9444.99 352934 402308 449880 479813 565247 354432 336434 408583
9460.42 423295 369457 324964 315863 319199 309775 348172 361589
9475.86 385835 399890 364012 332551 343495 428338 480325 550727
9491.29 490544 358804 289062 314229 382852 363981 373227 506385
9506.72 435116 373627 411359 477422 468778 406260 365086 309990
9522.15 299911 413639 434311 434776 413381 488746 448654 441553
9537.59 442049 471702 458586 393664 353968 269385 313352 368620
9553.02 445220 433139 471408 485336 430878 379483 278676 188999
9568.45 296606 401753 385338 267520 287763 372566 527784 430562
9583.89 220379 259307 343168 367964 366668 425716 521221 471992
9599.32 348326 294788 301239 402851 369939 341161 343925 392102
9614.75 357662 203358 270801 360760 499769 502243 348722 349502
9630.19 354573 447344 494569 533975 476165 457595 421859 468019
9645.62 412866 284560 258805 341273 313099 395433 336735 375275
9661.05 464245 483134 395612 375294 370136 424965 455842 526880
9676.48 424765 315564 399149 450821 359656 433024 516961 496436
9691.92 483973 462529 356351 269387 168586 216054 320799 360810
9707.35 312946 228740 293767 290047 346140 338612 398863 477624
9722.78 434614 371813 398390 408880 384891 355896 439182 554262
9738.22 532773 425716 356334 286931 253869 300728 275882 306904
9753.65 284410 375429 334886 311410 417231 405468 235662 308593
9769.08 322420 288174 249705 312125 383981 409574 399931 402217
9784.51 381656 354647 292943 321031 402716 433588 405370 372184
9799.95 339701 317296 346087 465816 438438 335816 324732 399218
9815.38 362147 416786 404651 310030 304981 267894 220502 387148
9830.81 425990 325000 291377 260904 286662 303164 308138 285246
9846.25 358915 391330 422273 376962 363065 355956 311530 302372
9861.68 350998 422068 425890 389158 382285 418942 322716 278229
9877.11 267726 393734 399757 309939 416930 450889 495778 399144
9892.55 343594 407739 370831 348496 442076 440228 349191 411049
9907.98 418022 514037 535506 505095 443866 329781 328423 370836
9923.41 363596 453616 340935 293113 286573 311155 316302 309817
9938.84 317183 295819 260212 304752 300269 275858 253918 288665
9954.28 262360 362721 413194 424657 381030 348649 379864 390164
9969.71 335841 346725 413754 346092 393933 404671 381591 390006
9985.14 338859 315787 310679 333251 352585 377680 292485 261694
10000.6 444597 558496 487051 512241 441526 379381 400372 345251
10016 370009 427700 344126 389680 424389 406783 310578 272664
10031.4 257214 373269 458730 579177 518294 428558 408299 376649
10046.9 395201 396166 358988 334396 316936 389714 437433 424396
10062.3 410762 428277 425396 482205 492775 384865 408787 412549
10077.7 370969 383145 383186 357751 300511 177334 307043 385673
10093.2 434509 313155 335239 429661 407485 386869 330485 244930
10108.6 247808 326086 397967 322441 324898 375749 372373 314364
10124 395940 415613 382957 305350 307067 314473 310845 323395
10139.5 325795 389930 406745 416975 411106 412555 413484 322280
10154.9 411386 471523 417644 258127 277809 364246 310470 275208
10170.3 387587 341649 404166 395876 358203 303636 361628 372539
10185.8 391077 334263 433570 376312 301425 388068 396229 320548
10201.2 376910 338602 280494 246178 280505 313110 390827 384430
10216.6 363590 387314 390742 337921 297585 333686 408272 385075
10232.1 244313 220772 274555 266621 341068 436274 493302 438939
10247.5 377217 306615 344110 440214 493925 364379 313168 333765
10262.9 442993 399657 331645 283591 250107 294964 277740 208956
10278.4 274552 384932 436977 363060 323981 424264 434338 359165
10293.8 306484 326038 345537 369693 310654 352070 360421 256798
10309.2 309161 380465 380727 381845 355361 331899 279172 329450
10324.7 368976 317510 306334 349441 343778 259397 260352 294330
10340.1 427746 381819 301329 326507 272922 363948 390336 399491
10355.5 427775 444246 355843 298159 270664 314385 401147 436477
10371 426050 444842 439200 398828 351684 434822 442693 387562
10386.4 388120 452391 456178 333885 314446 356033 497234 464977
10401.8 397568 353961 421491 350083 283408 233096 193213 246201
10417.3 256775 308318 358751 354375 322644 305735 333772 357328
10432.7 319048 247651 215787 247953 391747 419929 400534 399206
10448.1 414058 377890 401640 417657 388145 471249 491599 433595
10463.6 310903 276345 344903 386240 282562 282610 269616 300010
10479 300457 373993 450157 459845 509610 460645 410783 313027
10494.4 274457 356481 424021 396428 315037 278751 353617 415709
10509.9 383028 354578 308379 291906 390618 429864 462524 462044
10525.3 472106 564289 555378 456739 380703 393498 314995 251202
10540.7 288117 254916 250221 321976 347841 343645 404028 412920
10556.2 344840 272867 314276 296711 300200 231176 291903 411931
10571.6 454635 370480 317037 343029 366217 390226 406501 360466
10587 350997 349241 407071 457152 364714 348208 307275 308891
10602.5 431582 429571 389778 338189 271886 310838 350799 331460
10617.9 345448 268768 364388 412958 401703 390258 426142 368939
10633.3 310230 327464 311765 374721 380778 457870 349847 239859
10648.8 291974 222928 287063 283147 325238 336370 352285 360272
10664.2 349027 292643 392880 468747 421561 350574 347337 343631
10679.6 386998 471398 449094 347405 325735 349565 362047 390028
10695.1 411075 397594 358407 341755 294414 236330 280938 304250
10710.5 292538 315724 318784 289187 299462 361067 416712 462295
10725.9 481296 494815 473969 368624 277712 326682 381258 396460
10741.4 378077 331950 287094 270113 291906 349880 402614 485929
10756.8 516643 371970 298367 281623 322372 403048 426502 429024
10772.2 420979 345406 233671 241569 307458 297157 342796 429958
10787.7 396565 318634 292429 319464 327953 373517 402528 444835
10803.1 475161 435287 343762 256138 229625 242217 288107 359627
10818.5 383283 389894 324762 288477 361448 376413 380099 388973
10834 487352 358225 407455 422971 441958 474331 490632 350287
10849.4 272305 250087 302987 398379 458137 350225 327798 417227
10864.8 303181 330101 286963 243143 247033 358711 345814 369648
10880.3 367252 304962 381052 411857 399117 365139 311783 298301
10895.7 333568 321460 311521 290363 324297 379068 527340 513435
10911.1 412801 310310 319073 325675 326162 317853 337507 351827
10926.6 369724 377480 384835 380910 337482 300975 382705 396745
10942 377471 314643 262636 288206 340157 362362 367370 311623
10957.4 308416 401991 475849 412296 409592 444565 452075 372185
10972.9 295702 248441 303669 313573 406055 364263 315404 304384
10988.3 336749 346505 356526 334185 228789 305142 397743 407217
11003.7 350262 363368 424983 436895 489914 519798 435101 307902
11019.2 266030 270502 197803 301531 378938 422396 380854 323713
11034.6 241611 227871 348321 447838 470720 487828 427582 326138
11050 247779 254911 298807 328671 360414 439552 425574 324026
11065.5 267434 251406 308006 312099 307959 205559 278348 388943
11080.9 421046 387493 388765 390376 455322 504274 380477 269801
11096.3 332056 379875 307927 324220 288312 260128 307134 326961
11111.8 457691 497165 439351 307116 328072 350945 395480 386254
11127.2 387520 332227 320156 318580 355481 390437 370757 339305
11142.6 302444 297067 319441 306898 290298 296334 323582 455257
11158.1 491806 408155 300607 266478 282141 306863 278734 248470
11173.5 291031 411934 402176 476751 423771 398066 301293 300761
11188.9 301250 344910 290226 227073 276521 374830 326450 365924
11204.3 339396 251857 232880 216499 250384 277543 333639 308413
11219.8 356727 378479 430167 414206 380855 232162 236539 305731
11235.2 343018 298674 336151 383037 373846 314111 344200 357829
11250.6 376621 309549 331988 288639 327540 458579 531535 479362
11266.1 318486 304928 252476 279710 276481 277033 359840 288315
11281.5 217973 236108 227746 219204 316274 364145 315617 346259
11296.9 332940 258099 289841 360868 309720 211988 241707 296998
11312.4 310570 334987 380442 419326 358535 379368 374213 304241
11327.8 286131 304204 278325 248166 234963 323211 348599 381879
11343.2 345021 296349 272197 331259 367597 360646 308542 301648
11358.7 313048 304670 217388 233175 251851 229782 215836 204918
11374.1 237579 326125 403963 411642 310692 214479 248469 247357
11389.5 242974 281080 346319 412232 310363 165281 190787 252169
11405 285032 342721 332573 361244 357585 332057 370494 354136
11420.4 302556 340104 342580 333481 386814 361505 367970 344333
11435.8 352928 289598 213462 256113 334143 393388 368140 417712
11451.3 267435 195123 260380 335891 351056 344114 353753 310750
11466.7 320764 326027 327719 390819 463139 361125 254921 222983
11482.1 201873 217598 290145 343491 256444 254619 314517 287452
11497.6 278608 273650 252747 201143 274803 265965 199811 219480
11513 232533 299754 362759 383887 327148 252626 239007 272164
11528.4 308806 312714 369195 378522 369759 348309 372353 430617
11543.9 409041 284511 298306 319490 331532 295897 276749 340744
11559.3 358056 369384 332307 309107 395765 442384 397541 310135
11574.7 275218 303286 294491 316787 407755 354052 241254 255181
11590.2 338689 335454 317243 342017 362942 330337 297095 362275
11605.6 350950 312805 272396 222601 217717 290655 307982 296183
11621 319614 387627 366669 261390 235656 252330 254738 340103
11636.5 449639 441281 343942 320226 390110 402125 349143 293801
11651.9 344234 403090 350495 259751 238201 299510 333862 319773
11667.3 409154 500113 477631 453516 449889 364622 345710 326054
11682.8 299258 281286 326560 285029 342724 372973 337209 321539
11698.2 383694 423594 407892 390029 331769 264064 237049 203837
11713.6 236330 257281 298756 346476 381552 355934 296488 253650
11729.1 259226 308066 295330 342295 393788 413436 352052 396249
11744.5 406411 364330 347333 311980 314588 278927 358271 339473
11759.9 329246 300814 317464 379137 382936 355004 353739 461814
11775.4 373321 367064 283261 232570 246989 314955 329564 310117
11790.8 373884 356066 368631 379085 440157 444667 380621 398715
11806.2 428572 373134 330692 318359 297564 283532 329954 396599
11821.7 411466 350426 332539 354901 384665 335246 216130 234685
11837.1 245708 259535 352789 396931 360142 333306 381433 309271
11852.5 355231 311234 289953 340618 345233 270348 283174 337996
11868 278488 302618 369132 340578 283570 272027 336306 328314
11883.4 299646 249390 244128 254849 354717 405635 391267 308534
11898.8 239898 297382 320640 332938 346586 322227 346163 313464
11914.3 290525 252131 198184 218162 242991 289228 315361 312451
11929.7 274590 246727 246638 374552 330613 294464 271587 365562
11945.1 415702 376646 356165 344100 367820 346827 323763 289563
11960.6 340058 334271 342240 349673 372043 433564 405173 311394
11976 264267 314879 328023 300811 251209 170297 271803 361574
11991.4 421064 339223 283419 340098 358313 332423 279490 302944
12006.9 337857 377431 357462 318302 415591 397862 331486 387154
12022.3 338402 275065 257826 321359 308329 301290 296397 303388
12037.7 280184 304445 240757 220628 301277 402414 402200 371213
12053.2 284867 270614 275819 239284 286821 268400 280547 319325
12068.6 322448 285321 320875 395056 357396 269129 233866 281650
12084 341118 394410 445866 376848 278251 264515 297392 327385
12099.5 296853 224138 200773 188631 184696 270062 262383 257748
12114.9 311629 401356 338309 217817 192182 173552 194049 277467
12130.3 290887 298345 360907 371821 333888 314019 320632 383846
12145.8 359216 351384 358304 271538 194223 196727 282529 337742
12161.2 344580 327561 316258 283010 344469 400812 404292 378295
12176.6 248823 339679 360162 309565 301583 357922 293047 296455
12192.1 387025 280588 266868 282844 256689 289255 374343 322107
12207.5 323122 339327 395938 358060 303993 288815 333955 323487
12222.9 214240 203433 296336 334207 284843 324531 408425 430578
12238.4 433440 429518 338852 275840 297599 348703 369007 363595
12253.8 321549 282543 273528 283313 323140 334590 300680 326118
12269.2 375699 331221 223727 237328 238046 316253 362279 357858
12284.7 335507 345445 317452 274122 288652 250196 284894 321781
12300.1 344971 313499 296308 276598 278999 263076 280057 266048
12315.5 199121 307752 393392 438197 386295 311620 325908 321731
12331 287854 294854 276807 312512 340498 314437 319632 358936
12346.4 368359 270431 185779 246001 339991 488435 476520 399623
12361.8 323813 332649 281250 242265 289549 347867 333732 416466
12377.3 398123 265081 347809 305648 276168 351612 364193 295293
12392.7 299440 287920 259088 268583 303623 310928 352699 404102
12408.1 366642 299199 313345 288181 380433 364985 309965 329720
12423.6 353567 353056 333741 349729 313548 356211 358351 340876
12439 303533 256796 266051 258666 275113 355727 350183 343045
12454.4 304820 290144 309404 329822 351224 361897 337763 349853
12469.9 353386 354714 305375 239934 285895 382488 416013 470570
12485.3 396156 338831 314523 359227 255899 251171 249652 268898
12500.7 303454 258106 214564 150407 166488 219529 272189 256212
12516.2 274799 253989 341446 336698 352566 359381 343169 333364
12531.6 279433 285596 301512 257464 344038 387253 305976 242797
12547 253538 239429 248417 287011 397508 450552 316999 318378
12562.5 356628 323489 358956 377438 368473 321494 328182 326576
12577.9 308214 300850 273432 345437 394216 337681 275860 308099
12593.3 370725 300224 281445 275679 336060 319415 221772 266445
12608.8 238040 249205 360261 363036 344926 342821 248359 307706
12624.2 334500 295592 289454 349236 260471 184509 264502 295580
12639.6 275381 250853 312356 310007 366635 344123 289758 291156
12655.1 253728 247286 230013 229812 342976 394744 347179 245502
12670.5 177792 243249 312230 303655 303912 271812 291078 246680
12685.9 277213 382328 425825 389806 272467 211250 265404 322830
12701.3 394972 460388 405204 377954 333937 248498 195544 209870
12716.8 247528 324407 295759 304612 294051 311943 357564 323352
12732.2 256134 260199 345510 388554 360117 365217 354128 358519
12747.6 304920 255408 278377 311910 380970 364255 279179 266304
12763.1 277995 318461 307762 279137 349200 338086 301245 352059
12778.5 374758 318102 222140 225989 300190 293599 382195 427743
12793.9 396004 337081 343982 340288 312677 271435 293824 305223
12809.4 332373 356442 373929 382261 292319 243418 259976 304040
12824.8 275046 286990 266282 275474 326239 361855 307787 272444
12840.2 293529 351043 344650 399855 392647 315226 285277 293823
12855.7 353467 343103 346975 384879 342410 290606 326782 292124
12871.1 272454 326833 309242 340578 407492 447595 433587 378738
12886.5 368859 326130 279122 235395 228691 302748 299312 301422
12902 365936 346873 310668 371975 362756 235203 189141 253214
12917.4 299252 364869 277329 254328 265835 348032 278594 305380
12932.8 366511 287010 298469 322269 360397 302293 221605 284740
12948.3 387575 410968 367141 307622 286748 278177 255163 291164
12963.7 332143 311599 224429 220825 227862 220524 249796 361925
12979.1 389577 333511 324703 327851 329632 360951 293692 227837
12994.6 144135 219815 208013 260096 303451 262786 225015 242756
13010 262183 272349 264990 198137 228801 271172 278497 251351
13025.4 286999 238698 241351 295971 274977 331017 298153 257030
13040.9 267828 282208 295440 291110 274368 312128 393395 316393
13056.3 228140 195784 193014 211326 266757 278493 320507 377530
13071.7 392872 334014 278828 226493 223236 237704 295929 297736
13087.2 344907 409078 426258 375748 317265 293123 301363 355774
13102.6 399170 305207 296929 322994 349278 273223 256638 253689
13118 212373 216708 239889 289073 301823 385761 340575 354216
13133.5 398744 393331 369662 278656 247282 282574 335029 360869
13148.9 285328 289288 268331 317281 327305 265555 250215 295528
13164.3 290630 375307 373044 376855 283779 273125 245134 306659
13179.8 388470 380786 338954 309573 278830 198856 198940 316042
13195.2 402953 408994 308551 246879 203959 250489 281253 300013
13210.6 298838 277702 354965 286374 280190 341068 391566 376888
13226.1 323617 329916 321259 314664 314502 304002 301473 274786
13241.5 226113 200048 238339 342236 363550 251238 291833 369142
13256.9 356594 264051 214975 215152 225147 246023 318188 361586
13272.4 311299 264523 268031 262548 327430 349079 321511 287969
13287.8 258908 274000 341386 377330 350287 290148 247485 233228
13303.2 271205 339872 312355 296101 352115 361320 315407 291097
13318.7 296607 269145 318928 339561 330724 274748 284258 241052
13334.1 191355 196556 318623 388304 345176 306185 221079 250392
13349.5 351278 390284 349369 312021 315338 277128 245363 284684
13365 266777 217931 257588 263133 260542 264719 305886 385990
13380.4 348815 301596 243159 255069 246311 316645 361448 368665
13395.8 353878 277519 248179 361775 390741 324257 309247 344405
13411.3 386797 356222 283176 290962 252497 301148 324980 322463
13426.7 275366 289271 251569 186010 254035 304703 213554 246308
13442.1 243877 307229 378055 381716 346340 329836 321437 366726
13457.6 390792 391465 374397 370302 362788 334935 299036 291768
13473 231732 188814 203968 258086 265572 215294 238460 283032
13488.4 289655 304525 317095 313924 228841 208460 241925 219926
13503.9 232320 236439 250479 296051 334172 346298 326436 298402
13519.3 291421 314068 321003 418032 394951 380770 332797 332083
13534.7 303819 270325 257538 316314 320207 250521 235013 232061
13550.2 152122 238226 261546 349799 319017 238529 252143 340509
13565.6 361739 256036 224830 269963 291087 243532 319704 397219
13581 386463 339983 186694 141470 180726 226509 208897 215890
13596.5 270491 358682 332656 263513 277282 264776 334239 302961
13611.9 316583 385380 404354 365032 338274 269731 271195 329320
13627.3 327008 276505 257488 328603 311093 358410 344782 293901
13642.8 270517 241805 192517 179300 229986 303957 338273 313315
13658.2 277307 312323 363651 362245 369742 293510 275070 238701
13673.6 224448 326143 346185 351214 345845 346358 322216 319669
13689.1 279996 293863 220918 273158 313033 278362 168789 178192
13704.5 206716 226735 237509 313750 330732 323982 345573 320249
13719.9 258255 235303 220726 273762 302560 343273 297795 249194
13735.4 247651 249219 264341 313365 253004 277213 393716 439426
13750.8 369534 342434 327967 283947 283372 266756 251942 271499
13766.2 274437 242917 269865 262999 266825 266093 298763 283351
13781.7 301876 283576 266113 316074 334054 231965 255714 279358
13797.1 228370 332618 277677 242530 303607 461218 398838 358498
13812.5 390278 367569 366245 396943 403724 342902 216489 140322
13828 172775 252148 247140 245904 311031 406326 449936 375438
13843.4 339081 320433 288623 303214 309836 282579 218855 310390
13858.8 322720 303275 346425 400457 368482 306163 294027 245412
13874.3 247954 279356 288758 339021 367194 365745 340715 277825
13889.7 280397 200111 187828 279842 357534 319696 289722 300343
13905.1 292187 312664 319822 279741 223402 253417 344255 360028
13920.6 292226 321988 326612 256460 241107 243522 294803 381724
13936 256699 202217 185690 255941 318712 280653 303880 299629
13951.4 297142 229386 187325 174981 243342 273438 272636 256393
13966.9 309518 287594 290231 285489 269305 318650 348204 401927
13982.3 414047 336371 318764 311772 258712 279960 249363 219324
13997.7 227839 264433 286772 220777 223830 272276 233181 280859
14013.2 233923 252816 325392 279974 341148 409768 382073 381746
14028.6 336895 281443 215497 252662 276795 279769 281752 279088
14044 320469 355398 323566 304762 285539 275728 306314 296991
14059.5 306127 270241 230543 220245 303198 405847 448983 408506
14074.9 324942 258861 245344 291377 289911 339579 329637 305231
14090.3 255805 180954 185285 226407 319379 384627 382351 335813
14105.8 261156 282728 349358 353945 320819 330905 380030 306315
14121.2 281776 258545 252148 263192 331017 361352 262941 249736
14136.6 233358 236844 217728 247694 273970 334631 324912 289864
14152.1 256233 284898 292035 278020 328891 389379 365351 274247
14167.5 257436 309140 337355 238250 235175 385480 377617 285851
14182.9 249760 178818 216788 284736 326967 308906 274170 257913
14198.3 265298 237346 255202 265919 318861 385502 390539 358912
14213.8 314595 232221 253085 232558 290533 312591 313889 324759
14229.2 322310 345057 304113 248302 210296 212942 365162 425631
14244.6 373670 248247 178450 195962 269795 289789 293680 306906
14260.1 349640 335793 345765 351446 244631 219886 218117 227166
14275.5 263937 283492 289728 284847 295647 276638 303353 250449
14290.9 225826 280524 298782 238656 218582 281305 298902 363966
14306.4 392263 362161 301122 267471 276230 262899 308941 274790
14321.8 221518 201096 224008 206832 210134 312955 342538 302699
14337.2 290221 287098 326248 314405 221943 299960 339832 400240
14352.7 355591 334374 288764 230998 243296 317821 340236 332258
14368.1 303360 286440 231366 197906 291820 354435 270418 217345
14383.5 244883 164434 214311 261069 287130 280612 234073 189961
14399 232938 302035 361387 316750 275245 279781 334878 309905
14414.4 269414 263614 260200 261339 248119 298970 267374 194931
14429.8 270791 398783 446360 359931 326012 300703 287273 205226
14445.3 239186 286262 307187 343852 296680 279672 233272 191152
14460.7 252519 268423 311909 363052 326816 301755 284303 353539
14476.1 377874 264794 225092 214918 243347 255859 339922 422509
14491.6 410083 382104 348859 318696 294287 268379 286557 308090
14507 309714 307835 270259 295844 282285 253648 266215 315365
14522.4 306142 284441 325029 276259 260327 367733 369557 225253
14537.9 300299 308000 314789 255721 289958 313134 339246 248392
14553.3 284341 353575 352167 321833 287052 308044 342614 387715
14568.7 272643 249664 303766 352013 236442 273449 279592 285887
14584.2 234305 168802 208031 286705 377757 390230 359952 407977
14599.6 380865 301400 252272 196422 245262 311876 338380 327736
14615 276944 296470 287385 273575 249524 272861 266451 302577
14630.5 292444 287360 326696 370422 350564 395038 326393 273158
14645.9 301808 321130 342124 316906 299096 241296 190218 212953
14661.3 252428 247504 247631 251461 178248 244296 332444 314262
14676.8 296628 254781 233626 240956 246773 252291 228483 286787
14692.2 351988 314700 256675 221796 213976 232094 248238 228887
14707.6 250404 245464 276444 326088 302439 249699 284161 274785
14723.1 257636 306701 241067 209199 217594 262207 288042 270705
14738.5 330042 407344 433939 383583 361654 299309 339549 273209
14753.9 196985 266175 328810 353427 362248 364842 334337 284073
14769.4 308209 286429 284251 258873 277657 309641 342069 304363
14784.8 281522 333311 365159 336184 269620 211070 253350 294590
14800.2 295177 253153 257714 233501 218209 265777 315194 315730
14815.7 338632 306553 263480 291621 287884 273839 292494 356247
14831.1 354590 338196 273383 309917 327027 266070 281613 303264
14846.5 277699 260681 284371 252104 252504 261914 235178 240834
14862 236086 190143 322084 416048 379731 340171 283387 212263
14877.4 235945 227057 244794 225163 208018 261290 287762 259035
14892.8 266689 301790 426808 459352 377740 304771 271524 262191
14908.3 304364 248530 238093 277102 321861 289055 227615 266399
14923.7 223695 266086 308511 305666 307843 270961 242078 171150
14939.1 151531 234369 248574 261043 331528 357246 392143 408543
14954.6 354044 259208 299686 338479 376813 335868 306886 348791
14970 346553 302451 269660 251729 240561 350954 404302 376117
14985.4 290361 223122 285000 300039 241002 228815 196998 241461
15000.9 243218 288725 288597 310748 350226 363550 281406 245714
15016.3 219246 293127 267980 273728 327990 331777 319200 266622
15031.7 293801 292578 232303 245072 311064 353307 295464 326690
15047.2 249395 234869 257891 247161 321766 318003 313831 344287
15062.6 337748 289827 255284 303670 273955 260848 214628 209362
15078 284531 294773 315666 351028 301778 275046 266927 295722
15093.5 358078 312624 273753 213449 244874 222394 187668 180584
15108.9 231403 327886 388179 360769 232746 198791 194454 227431
15124.3 301499 282340 244405 151034 209234 289674 306933 348744
15139.8 365543 327450 356970 354876 384705 345280 313885 255617
15155.2 191614 240519 322140 311403 336802 314516 252391 299784
15170.6 359637 371814 365783 330523 366909 331024 289831 286417
15186.1 303162 323600 305825 284177 292662 262269 226730 296597
15201.5 364807 322651 271677 294638 366646 400151 432128 433998
15216.9 316582 304184 333005 374981 298288 289941 232641 300073
15232.4 385997 304996 211262 175903 186546 219854 259757 348977
15247.8 247202 253829 237471 240896 268613 183536 147178 209022
15263.2 197095 327394 404072 364179 318408 322256 260781 220124
15278.7 243061 278881 374413 361721 258539 245182 262369 248953
15294.1 260363 292407 330389 304775 342021 301177 222892 213999
15309.5 307902 368452 376858 384928 385521 344385 334739 354279
15325 318390 250956 233189 312279 372179 300391 241559 249208
15340.4 303980 309855 227802 214281 198085 219898 210722 221611
15355.8 267174 263708 233777 243818 297845 275227 206448 227137
15371.3 271929 370200 369370 308513 291480 302862 251008 319235
15386.7 351096 286342 340168 401189 350987 260354 298831 334472
15402.1 296953 270864 308847 331469 354368 340091 274174 237745
15417.6 252883 232480 281659 288262 306322 320165 261210 223725
15433 256497 350097 431589 322706 265197 247836 329550 353298
15448.4 235319 251886 270836 339214 414522 378003 341200 306219
15463.9 263443 290977 304821 359746 351164 309405 325447 292280
15479.3 310868 357507 347472 269707 256257 238237 252835 273461
15494.7 187237 205144 240017 255013 305638 326634 263647 270321
15510.2 313681 317525 245601 236888 271070 218015 179546 275202
15525.6 346573 343275 343063 392063 402622 328630 223581 246508
15541 305912 377467 382793 358205 362979 414935 471988 446284
15556.5 394866 369624 335318 343196 336147 345801 271083 315293
15571.9 327936 247413 272786 281085 200388 211505 204391 214026
15587.3 237225 302753 282181 232938 262855 304810 311247 248779
15602.8 276130 328676 314798 308389 290005 287352 274804 266528
15618.2 257742 252734 291545 360474 358952 298467 226638 260722
15633.6 364160 395757 312573 263605 259902 305080 371039 384187
15649.1 300881 309019 301450 246158 182998 261730 317228 270234
15664.5 319835 350502 363889 356174 299478 308350 323484 294789
15679.9 260754 284443 312986 270615 265519 259123 197392 218346
15695.3 289821 328055 297591 322671 272548 223283 195916 211290
15710.8 255386 271112 306230 338895 334482 386551 395477 332749
15726.2 285587 282262 262390 225891 261988 272068 246965 249907
15741.6 333533 340129 343192 382165 324085 278671 322962 361082
15757.1 348326 322489 331026 327879 291867 298474 234070 269423
15772.5 300975 349332 372732 340914 324994 308192 386732 322582
15787.9 287088 333817 356891 377596 360980 325264 335560 427009
##END=
