##TITLE=0001
##JCAMP-DX=4.24
##DATATYPE=INFRARED SPECTRUM
##$NOTE=15.05.2024 14:09:57 4 ^0 x16 v:1 [Приставка: без приставки]
##$PAR1=2045
##$PAR2=2351
##$TIME1=2333
##$TIME2=2545
##$ITAB=-1,-1
##$NAK=16
##$RAZR=4
##$APO=1
##$REF=7901
##$DATIM=2122677129
##DATE=2024/05/15
##TIME=14:09
##XUNITS=1/CM
##YUNITS=TRANSMITTANCE
##XFACTOR=1
##YFACTOR=0.0236347
##FIRSTX=0
##LASTX=15801.451535575
##FIRSTY=48203.9253387701
##MAXX=15801.451535575
##MINX=0
##MAXY=1.26888e+007
##MINY=3447.01
##NPOINTS=8192
##XYDATA=(X++(Y..Y))
0 2039542 2975331 8079674 5763856 1981809 1291453 1119082 955194
15.433 752696 545109 758531 746639 536360 703025 642833 514720
30.866 419458 517229 433063 435146 519659 419257 394245 439165
46.299 365491 332655 411875 401818 350713 507620 472535 464356
61.732 425742 440809 571416 555868 461663 482886 526474 415752
77.1649 337198 275883 266799 238499 210516 297937 396519 297653
92.5979 276524 288231 331514 375690 433308 408158 362364 309205
108.031 230810 241765 352818 384834 404199 431474 388679 317320
123.464 298996 446390 471783 491586 407538 391048 401853 359245
138.897 333012 417276 476506 476357 429170 421360 382878 309303
154.33 325934 421500 418671 385500 419101 409593 365389 305506
169.763 286009 321877 358601 528787 481640 415737 362705 304937
185.196 319196 369457 369891 355885 356462 348162 285683 324745
200.629 324313 348123 395124 356517 409005 399773 336055 305098
216.062 325673 372095 386862 312763 283843 308923 289986 277405
231.495 289755 240434 251889 329392 360420 321457 221805 173515
246.928 249781 344470 365802 372185 394668 388810 344105 348639
262.361 314958 305236 343477 357604 339664 358163 315124 289095
277.794 314528 258677 271859 338947 335957 350264 426607 459763
293.227 458353 420235 339993 394694 494571 530386 463456 350045
308.66 247747 262793 288082 336489 380130 392972 388209 321287
324.093 298454 375989 440012 460436 444583 455811 472110 387367
339.526 278005 299059 359587 338406 334379 427027 442021 352483
354.959 407235 517170 479104 389615 369645 459938 522729 508978
370.392 449543 448246 523878 475730 309174 321043 366480 326596
385.825 332624 318149 455438 538391 538053 548620 575854 553246
401.258 476053 453081 486162 464838 397556 407759 463352 521625
416.691 492322 412673 363084 426553 534358 567377 505220 447947
432.124 480915 495003 482192 461181 503830 558122 559095 553786
447.557 554989 481358 412248 448037 537373 582259 591424 654992
462.99 795000 964052 1091026 1223401 1316198 1381100 1511102 1760461
478.423 2044147 2271259 2477455 2768497 3158713 3548142 3908279 4319150
493.856 4834110 5503929 6345553 7227650 8092416 9094109 10286487 11559025
509.289 12888809 14247817 15420158 16269778 17122134 18491326 20237303 21608673
524.722 22494681 23675606 25487561 27370410 28839746 29930841 30860530 31826848
540.155 32859546 33773594 34497916 35207024 36024357 36911185 37777923 38477857
555.588 38903781 39165416 39445552 39794005 40176876 40539800 40935539 41615251
571.021 42633155 43677099 44694871 46027302 47746622 49638871 51688273 53953402
586.454 56181215 57930127 59228117 60815836 63083559 65303577 66799570 67891475
601.887 68943899 69682473 69880961 69830772 69920025 70051416 69788541 69326381
617.32 69721483 71514924 73838072 75721925 77467780 79628954 81688009 82990903
632.753 83740202 84365553 85174965 86315624 87536977 88776151 89966385 90451530
648.186 90667564 91853652 93379959 94953671 97794822 100363535 101932090 105946845
663.619 107570894 95828377 79778834 81918684 100236106 112906825 114688733 115211285
679.052 116778206 117745929 120047656 123394716 125960429 128914333 132810035 136262563
694.485 139368205 142863667 146469825 150011612 153232853 155613645 157659367 160057199
709.917 162297481 164216290 166574026 168692008 169020332 168844639 171020943 174965415
725.35 177727747 178979360 180402413 182267276 183982937 185585350 187146643 188617521
740.783 190158399 191761291 193303456 194822780 196219977 197334731 198291308 199300930
756.216 200519560 202110273 204037323 206039512 207927687 209687339 211415970 213228916
771.649 215106865 216942087 218733358 220551224 222367735 224072825 225645475 227220779
787.082 228971622 231012659 233376267 235917857 238374322 240675545 242953801 245155633
802.515 246924526 247885184 247957572 247591817 247659885 248801018 250917586 253487560
817.948 256170997 258904821 261605638 264133988 266560339 269102336 271729545 274205477
833.381 276442900 278325909 279433146 279569239 279284784 279275574 279571486 279836173
848.814 280191294 281218331 283201319 285805069 288591475 291425290 294216925 296783604
864.247 299116070 301237128 302917261 304194443 305785998 308327179 311725324 315591766
879.68 319615852 323445082 326801899 329670597 332168663 334409784 336446544 338271368
895.113 339975351 341754171 343691081 345726201 347752554 349679195 351580329 353628347
910.546 355766056 357793269 359738736 361746673 363782227 365783286 367844648 369999213
925.979 372058416 373869544 375523671 377149072 378748381 380388723 382241479 384306428
941.412 386404267 388466675 390540350 392585240 394542198 396473660 398440608 400390031
956.845 402205514 403667796 404548538 405077508 406006007 407824730 410252319 412747722
972.278 415114596 417396851 419570381 421583101 423481011 425320185 427093419 428793762
987.711 430392014 431853359 433313691 434912017 436384174 437331366 437833426 438297608
1003.14 438938975 439752394 440645256 441474300 442236051 443074526 443942796 444598803
1018.58 445017454 445433868 445928288 446298536 446443123 446601012 447018040 447594944
1034.01 448116142 448607555 449205305 449892067 450579812 451286499 452136119 453245554
1049.44 454564781 455893707 457167449 458527390 460033338 461561069 462943092 464040784
1064.88 464871903 465637345 466373255 466888530 467232774 467699883 468338837 468988488
1080.31 469612920 470251972 470910169 471513657 471828957 471836757 472140461 473291342
1095.74 474938213 476363345 477409469 478282366 479003207 479505207 479819457 479980928
1111.18 480085567 480380277 480993261 481742310 482477429 483377000 484643350 486176672
1126.61 487793834 489453302 491049433 492376735 493495170 494680297 495884828 496764356
1142.04 497253646 497577169 497799196 497853045 497834013 497943135 498312475 498967038
1157.47 499840665 500871633 502043159 503279566 504509145 505752397 506829750 507342552
1172.91 507382125 507614782 508223506 508632950 508451911 507615028 505833934 502948078
1188.34 499229022 494775404 489322673 482624340 474778983 466592481 459149262 453109454
1203.77 449269113 448229476 448920744 449683261 449085118 444667613 437303959 435450032
1219.21 444294458 455062685 456961865 451831814 447266802 445780120 447252747 452412100
1234.64 460759918 470514253 480230036 488752438 495535313 501079127 505896471 509697923
1250.07 512130062 513792948 515541718 516901867 517039960 516952606 518096476 519642436
1265.51 519442115 516858073 513737705 513205870 516693607 521948713 525669308 527499110
1280.94 529159708 530690961 530559386 529221179 529336278 531707127 534050920 534701949
1296.37 534605817 535134268 536242269 536870911 536511447 536120611 535802282 533354081
1311.8 528579024 524288249 520368850 515641984 514353196 519083830 523994318 525097986
1327.24 524933501 523887964 521167857 517413532 506684290 484421843 465378010 467741388
1342.67 483893214 491662666 485848816 478258871 474451691 469156313 462827654 461043900
1358.1 455285561 434081362 412318699 412100130 426162420 434988674 433492141 422668886
1373.54 410615094 413863450 430461815 444452105 455352580 460358550 447496757 435109122
1388.97 448298599 462904554 448455854 423553145 416842297 430554031 452262226 463659640
1404.4 462079373 467511205 480197259 482812285 481136130 474016024 438778321 395257583
1419.83 391291708 421760348 449732726 462512754 460793079 453443279 451894862 439586985
1435.27 407879810 398915653 434943424 471708686 475318512 460355046 443663815 436004716
1450.7 444885604 439068043 381775747 319359144 334890419 407240806 441033378 429065665
1466.13 438520818 460212102 431383713 372693171 359705759 401995089 449780434 474285757
1481.57 483228074 482769762 458097256 408109155 376760716 395978918 423200003 406800797
1497 375632887 387872753 426397490 416045198 338550982 274201894 296023715 366026301
1512.43 399937052 386177107 361653231 335879520 313242735 314079289 336339741 365615461
1527.87 398419853 412455497 392531146 375998354 375242048 339691895 274528266 257205477
1543.3 305232481 367198557 410174275 425028729 416023228 398516769 359033632 287986587
1558.73 247707883 295504651 385656175 435117118 424696253 400493858 407654281 425642158
1574.16 407944950 382935386 410103165 464655498 487815975 485976327 487455927 487398555
1589.6 480013437 472636111 466322822 461690424 461970209 460981517 453944533 449888217
1605.03 450456781 443572520 436410862 442990789 435865632 393324149 363717451 381739840
1620.46 400566295 390560328 384842483 397305109 414638889 429455433 415389256 362099878
1635.9 326802724 355729118 412855947 434183211 396097390 339120244 323149631 328649417
1651.33 293169092 256747998 305755496 398159162 427290753 399453144 391855399 405819818
1666.76 388649325 348448139 336705806 348983562 350124676 355608543 376973516 364303859
1682.2 304734210 269475208 297879386 348247514 376456886 371862615 338115543 291097676
1697.63 253561120 241836530 259121689 287912094 306186427 316392591 328244997 327453106
1713.06 296735373 250227811 223707617 237268343 272976315 295639774 295736351 289514035
1728.49 279104017 251024950 214981516 201741060 216611104 231877481 231995429 231245565
1743.93 237759427 236701844 223342856 217993564 232693058 253275386 264186294 265468022
1759.36 263756602 265764153 275029587 284404619 280695235 261263567 241486378 242263170
1774.79 264864163 286401522 291444425 288789310 288195549 289566376 292041372 287191578
1790.23 266694490 249076756 256765321 273849735 273879931 264405494 265277960 274939842
1805.66 280229663 275161535 265167444 260578624 261358440 257891468 250159675 244820149
1821.09 238499921 227212016 216845847 209467451 202713883 202738653 211577872 216928421
1836.53 214316925 211615395 205631634 189825420 176947142 180260876 190869061 195990330
1851.96 196138081 194960314 192575956 189451439 186637001 184634068 181388119 172332199
1867.39 160041018 156021988 163401196 171202581 172208327 170303631 168578429 165948124
1882.82 163255484 160963868 156690603 151475448 149565334 150177177 149397735 147897769
1898.26 147818856 147482623 145542133 143419666 140974416 137186256 134385360 134404163
1913.69 133676579 129212605 124485416 123028127 122839160 122009564 121879841 122198725
1929.12 121031945 118796315 116852338 115279972 113718145 111018569 106488821 102732621
1944.56 102363496 103635895 103821902 102865069 101465289 99838917 98324570 96938191
1959.99 95570457 94314220 92779103 90972589 90119799 90530751 90750090 90037318
1975.42 89283852 89377085 90355512 91620886 92437487 92639837 92357604 91481500
1990.86 90599646 91011554 92524223 93417059 93179575 92684878 92085607 91046280
2006.29 89978092 89431768 89388856 89404797 88856816 87819344 87320538 87724394
2021.72 88193767 88297511 88370427 88437338 88302007 88152402 88300562 88808251
2037.15 89479951 90108579 90769515 91570560 92377978 93317742 94895518 97132039
2052.59 99312376 100833799 101788753 102627468 103442612 103915335 104163867 104884304
2068.02 106201935 107441476 108344663 109325460 110546238 111805846 113042488 114261632
2083.45 115338878 116151446 116677992 116945370 116870567 116310218 115515708 115111677
2098.89 115333723 115869394 116465066 117052461 117504100 117752151 117912219 118099274
2114.32 118234598 118078928 117516092 116672706 115590759 114087029 112087843 109744464
2129.75 107178501 104405516 101542376 98938634 96898581 95271561 93676935 92094638
2145.19 90748437 89584993 88394471 87165567 85880766 84372742 82813553 81876720
2160.62 81975488 82779424 83763943 84723575 85569506 86096897 86159136 85950905
2176.05 85919834 86211885 86521271 86739790 87132072 87683641 88080664 88351801
2191.48 88806868 89497635 90210056 90766014 91124915 91389632 91747033 92214438
2206.92 92567409 92801269 93301288 94106605 94668615 94833015 95139937 95835485
2222.35 96586518 97202888 97830272 98585473 99416266 100181522 100843098 101555701
2237.78 102418110 103345358 104288325 105253593 106107246 106691404 107105485 107619397
2253.22 108356712 109270588 110312136 111401823 112436898 113478900 114684125 116102622
2268.65 117768576 119745411 122007476 124533896 127389301 130616436 134220949 138098975
2284.08 141951271 145516315 148656611 151184181 153041824 154374521 155137766 155230267
2299.52 154890678 154204456 152639826 149704916 145597258 140946570 136474958 132864291
2314.95 129948251 126143277 120520922 115284261 113300706 113397853 111582047 106709050
2330.38 101760542 99281556 97973082 95476238 92585705 91068586 90808143 94583406
2345.81 107379026 123124241 125237684 108816242 87241693 72312455 63874257 59185021
2361.25 57917338 59274591 62560809 68232584 76422544 87056491 100283921 115719797
2376.68 132850665 151225127 169283463 184695992 195950578 202671016 205319587 205135248
2392.11 203568903 201523825 199259056 196818488 194316515 191793507 189168883 186588566
2407.55 184473748 183015346 181867059 180497821 178777127 177036636 175553224 174269876
2422.98 173037813 171809260 170595203 169428556 168364220 167451877 166663472 165893660
2438.41 165118456 164431838 163882217 163453639 163161161 163035239 163089856 163279049
2453.85 163447727 163455628 163307248 163062150 162725033 162275004 161750615 161250112
2469.28 160783339 160218300 159466811 158606649 157811313 157218238 156790048 156365179
2484.71 155892085 155452924 155090844 154733346 154249095 153644872 153125051 152770816
2500.14 152450180 152141118 151887612 151571788 151145425 150747342 150423500 150119874
2515.58 149854184 149624348 149361881 149086016 148931977 148956615 148983695 148807765
2531.01 148519285 148346195 148299354 148292877 148348765 148446990 148512622 148603302
2546.44 148790145 149006190 149231329 149505875 149716244 149807727 150033540 150517024
2561.88 150975908 151281759 151714118 152426843 153262300 154123234 155040774 155973144
2577.31 156855990 157749778 158761346 159878627 161011166 162164885 163462249 165018217
2592.74 166823802 168703596 170489961 172252776 174179819 176322660 178600508 180897291
2608.18 183173149 185584209 188291306 191182934 194079141 197074833 200406132 204073634
2623.61 207813930 211480102 215249527 219338176 223744111 228325300 232926132 237557024
2639.04 242465848 247748101 253169621 258616716 264150455 269604097 274815286 279982277
2654.47 285198410 290089475 294278492 297715151 300342123 301874848 302192485 301728404
2669.91 301110054 300500940 299703435 298723169 297705895 296583302 295295262 294042103
2685.34 292988009 292076166 291215862 290323361 289306083 288205356 287143655 286119521
2700.77 285055881 283973393 282971990 282032902 280950581 279638123 278318996 277152062
2716.21 276023292 274904273 273908661 272966393 271913349 270747145 269521001 268237374
2731.64 266942184 265732792 264631188 263507434 262218656 260820573 259483262 258252892
2747.07 257048786 255772715 254364678 252863003 251372586 249978799 248747825 247677156
2762.51 246648443 245575944 244487663 243404399 242327656 241271815 240121064 238672417
2777.94 237005683 235484221 234196299 232828669 231270622 229764817 228323123 226679800
2793.37 224876333 223222022 221751406 220271739 218777065 217435269 216331422 215400572
2808.8 214499928 213547416 212623190 211800383 210962138 210020993 209108029 208317039
2824.24 207573787 206825085 206011569 205022368 203917216 202850817 201755374 200428174
2839.67 198749218 196663707 194163497 191285050 188271060 185867018 184804878 184807738
2855.1 184963180 184919041 184777227 184387021 183642112 182811334 182077594 181382837
2870.54 180723953 180036881 179101974 177912565 176707240 175615602 174674522 173907954
2885.97 173119323 172037274 170721300 169424828 168202517 166926935 165521806 164043930
2901.4 162549696 160949845 159202335 157510218 155927048 154020016 151428139 148488998
2916.83 145898086 144025627 142867029 142339664 142303488 142509882 142746289 142882146
2932.27 142792838 142471132 142129755 141999276 142067602 142082765 141831921 141368973
2947.7 140829945 140157350 139218751 138040542 136866118 136051801 135656045 135249682
2963.13 134492209 133409022 131979845 130430663 129635857 130000166 130668727 130814752
2978.57 130538902 130032707 129228302 128298526 127468487 126730695 126165097 125877325
2994 125737297 125733359 126061012 126613328 127065272 127408897 127852685 128427949
3009.43 128940152 129030246 128380655 127167539 126056943 125485821 125279974 125193633
3024.87 125296450 125518160 125464873 125000607 124333831 123479831 122357073 121193726
3040.3 120229710 119367010 118408539 117307139 116192397 115284619 114593203 113877547
3055.73 113121617 112589594 112255836 111786205 111152741 110640721 110273062 109821441
3071.16 109299075 108927753 108725724 108496977 108142792 107793990 107613654 107504992
3086.6 107224650 106797442 106391607 105888999 105205506 104710812 104615358 104519737
3102.03 104214573 104103149 104354385 104579345 104564876 104449195 104304402 104221879
3117.46 104352554 104502287 104343273 104051944 104083075 104492721 104920826 105060612
3132.9 105036234 105296932 105938699 106443109 106483927 106465262 106833012 107470446
3148.33 108139498 108897739 109742705 110402127 110823549 111392266 112350796 113496797
3163.76 114681213 115994568 117353106 118589003 119825695 121109642 122166036 123033693
3179.2 124092239 125231163 126010702 126473137 126881018 127177631 127247064 127070514
3194.63 126632403 126197020 126232111 126759349 127310118 127553042 127553216 127456477
3210.06 127206226 126754163 126331026 126058681 125611059 124803647 123956962 123222408
3225.49 122331230 121302732 120559577 120142736 119536874 118488275 117430251 116794408
3240.93 116404934 115990817 115770535 115960125 116205518 116106461 115882183 115983511
3256.36 116404205 116847256 117261098 117785958 118456774 119301967 120378659 121447351
3271.79 122120978 122571230 123455593 124948276 126528653 127827913 128994218 130208109
3287.23 131435797 132649304 133903704 135184421 136339282 137272652 138211707 139533714
3302.66 141230284 142850128 144083771 145154284 146559421 148557826 150940288 153273465
3318.09 155334995 157263309 159230448 161013645 162170819 162699967 162969584 162897053
3333.53 162038528 160466194 158458403 155581201 151296704 146106232 141207453 137509837
3348.96 135226142 133815789 132519826 131222704 130209728 129308084 128084742 126511446
3364.39 124919397 123626240 122671700 121894467 121443634 121755347 122862350 124401287
3379.82 126124386 127931144 129994576 132795911 136288228 139737647 142903545 146226951
3395.26 149807016 153313624 156486186 159014892 160599083 161316472 161382848 160770203
3410.69 159354434 157030472 153487173 148281231 141674665 135246535 130697496 127993431
3426.12 125762178 123187645 120378085 117650638 115374775 113664621 112114959 110579752
3441.56 109310143 107878130 105688988 103567034 102660309 102275371 101055652 99277486
3456.99 97881204 96717424 95491101 94684314 94446024 94292856 94040775 93631668
3472.42 92916002 92346917 92307030 92000464 90909849 90119981 90392693 90839012
3487.86 90885367 91213766 91825150 91772583 91244536 91076621 90562771 89004884
3503.29 88033896 88858039 89763357 89541114 89693568 90973406 91978940 92024393
3518.72 91553822 90456592 88772778 87406150 86949521 87519518 89155676 90976718
3534.15 91589223 91177130 91233028 91716873 90585934 87379764 85139464 86086632
3549.59 87863750 87968084 88135828 89752130 90428668 89101322 87387402 84210851
3565.02 78071525 73853311 77172543 84521416 88611092 88878045 88655298 88528518
3580.45 88130263 86986051 82615938 75989660 73941146 78103387 81308262 80426389
3595.89 79758832 80713424 81339429 82291273 83276515 81213181 76831680 74243057
3611.32 74149715 74638227 74650309 73315995 71900018 74661932 80544578 80550148
3626.75 71767687 64701559 68138848 77188520 83601867 86837025 89070015 89677792
3642.19 88090493 83565596 73914707 62901547 61204054 70552928 79342386 81906845
3657.62 84885716 90599308 94166792 94792294 92494427 84466774 74878734 70826063
3673.05 69154169 66302254 69027677 79756067 89836730 93855494 92115144 84188144
3688.48 74908346 74097197 82431520 91233861 95387766 95190081 92168895 90100905
3703.92 92001016 93968975 89776252 81478350 78659055 85662776 95079771 97940640
3719.35 94793067 91020100 88571216 87993805 89855634 90713983 85910313 76810898
3734.78 70672239 74150921 84801540 89855443 82798134 74859473 75660332 77402395
3750.22 75023752 79091442 92840469 103108604 104650763 106758520 112502457 115341619
3765.65 113741001 111863432 112617165 117941464 126071791 129445264 125441588 121667112
3781.08 123459922 127251606 129562411 131970418 135798826 138087109 135171722 128673639
3796.52 122406209 115400996 108109304 107302596 112949889 117272626 122320554 132563017
3811.95 136990257 127693885 116541890 112067618 109273751 109364274 117803424 128408561
3827.38 132698868 131877064 129282408 124560442 117126632 109569322 107953585 115127993
3842.81 125954102 135428434 141867728 138572153 120151201 99008024 96372484 114879772
3858.25 134639445 138996294 132448315 127759885 126954986 124758330 121704784 123879815
3873.68 133001133 141992488 143160171 138607748 135036628 133584865 134332508 138723609
3889.11 142171785 141549369 144008619 150510460 149174674 137528783 127223716 125336978
3904.55 131891141 145530780 159504944 166350283 166496672 162340653 155353940 151568261
3919.98 154389333 157664023 157649901 158614292 160828946 159625201 156964657 159127953
3935.41 165550994 169871407 168664344 164640992 162786729 163954746 164625168 164212462
3950.85 166047956 169963304 172332365 172590775 172414525 172163625 172414959 173851861
3966.28 175080628 174913055 174318622 174002794 173810559 174282768 175568482 176532162
3981.71 176703005 176839774 177111573 176925525 176406608 176273514 176651323 177198815
3997.14 177713618 178009404 178033529 178014096 177931584 177660177 177589831 177982964
4012.58 178381520 178433816 178323732 178260831 178312005 178427120 178498772 178619712
4028.01 178836900 178910517 178857987 178998239 179310998 179559030 179613114 179276512
4043.44 178634631 178362518 178824866 179495635 179790189 179735907 179651537 179724160
4058.88 179929081 180141015 180275548 180292032 180183344 180046846 180003800 180064349
4074.31 180164898 180190872 180048512 179919006 180108828 180483190 180586916 180391669
4089.74 180322233 180566177 180850820 180887437 180748950 180682195 180667434 180536393
4105.18 180451422 180682312 181056037 181233426 181231289 181216380 181189750 181147923
4120.61 181204991 181402513 181599326 181667174 181646179 181566057 181403695 181339714
4136.04 181536949 181731168 181700186 181713632 181922947 182058354 182042824 182077349
4151.47 182192251 182306653 182363378 182243862 181997736 181924627 182118978 182355798
4166.91 182486798 182520694 182438677 182276068 182216333 182360352 182546216 182577737
4182.34 182497749 182466870 182503995 182507614 182431947 182318072 182207111 182126897
4197.77 182142990 182283307 182419078 182392266 182228803 182084121 182055377 182114666
4213.21 182167133 182180016 182204114 182231117 182195900 182119814 182071789 182067481
4228.64 182079374 182027492 181849346 181649822 181590632 181673160 181795991 181873291
4244.07 181829526 181651647 181434019 181304390 181337462 181455579 181446394 181268524
4259.5 181157076 181200933 181176215 180997096 180843908 180747920 180590986 180471405
4274.94 180555552 180718520 180715934 180517032 180261655 180063216 179949327 179912096
4290.37 179940701 179983132 179949787 179779349 179461648 179087483 178849010 178802138
4305.8 178771243 178656703 178563810 178547396 178504154 178311452 177987369 177759332
4321.24 177790728 177855092 177659792 177315444 177061801 176878200 176694330 176571807
4336.67 176525610 176483166 176368136 176113175 175789038 175601089 175534415 175337760
4352.1 175007263 174796019 174707096 174524551 174275895 174131405 174003108 173741595
4367.54 173490620 173367490 173146192 172730016 172442731 172429152 172368754 172052200
4382.97 171637923 171293307 171048652 170876860 170716726 170586669 170563269 170527756
4398.4 170252509 169783081 169370237 169049020 168662881 168270249 168080099 167991478
4413.83 167726189 167353831 167120868 166981120 166774452 166486145 166079242 165532841
4429.27 165046040 164815941 164755276 164617385 164262777 163796894 163442580 163214563
4444.7 162933783 162588899 162303798 162026688 161666117 161306293 160966946 160522465
4460.13 160012349 159614361 159349403 159123846 158874034 158567406 158244610 157935347
4475.57 157542299 157065324 156661453 156301090 155850990 155429204 155153200 154859362
4491 154431082 153973601 153577498 153252534 152963722 152616585 152198974 151809615
4506.43 151447134 151031849 150558299 150017826 149443188 149034477 148851193 148639631
4521.87 148272578 147836543 147264994 146567394 146071067 145858457 145623918 145271575
4537.3 144868914 144313612 143677222 143234311 142919612 142465629 141890808 141342018
4552.73 140859316 140474036 140153966 139739253 139166291 138576467 138103516 137692583
4568.16 137216131 136701743 136275752 135923235 135559217 135228038 134920495 134437353
4583.6 133780177 133279824 132989923 132512447 131742096 131103168 130799317 130517728
4599.03 130031165 129514267 129142785 128778953 128259465 127727209 127313496 126803611
4614.46 126110960 125561464 125236580 124790163 124166152 123639122 123225124 122798953
4629.9 122419202 122064105 121560898 120938677 120375873 119889906 119420119 119003587
4645.33 118672417 118350878 117912661 117311661 116684570 116184653 115728124 115191485
4660.76 114690294 114320365 113948894 113481982 112953600 112391617 111890421 111529156
4676.2 111149634 110600249 110024294 109584436 109187545 108664579 108005464 107338831
4691.63 106756090 106242100 105795215 105446805 105142082 104789532 104376219 103927871
4707.06 103464469 102987945 102453337 101850502 101278413 100826737 100450340 100009323
4722.49 99445100 98916875 98587377 98318628 97913406 97449778 96983497 96364419
4737.93 95677145 95223378 94930918 94493153 93953296 93497820 93060112 92590283
4753.36 92197462 91833619 91343326 90774211 90271985 89858750 89488582 89114730
4768.79 88675955 88157433 87632137 87180979 86803063 86432999 86030248 85607349
4784.23 85183610 84766761 84363160 83984879 83650725 83325497 82894780 82321382
4799.66 81731695 81228207 80791333 80423647 80141295 79844209 79453198 79053109
4815.09 78699199 78306302 77838004 77348943 76863586 76414693 76047004 75705855
4830.53 75343845 75047234 74827621 74517571 74080223 73720410 73495771 73155826
4845.96 72563617 71910033 71367421 70948116 70691829 70565004 70402690 70190921
4861.39 69946355 69455035 68730623 68208225 68008078 67793045 67484513 67253302
4876.82 66995310 66534353 66016275 65676907 65501176 65298945 64990647 64687427
4892.26 64434993 64086530 63596657 63136843 62782861 62458285 62183546 61998873
4907.69 61787414 61452155 61036078 60613747 60285028 60078275 59803420 59379420
4923.12 59069258 58973996 58808060 58447649 58074024 57756385 57420193 57055225
4938.56 56705293 56447005 56315013 56161990 55823014 55366216 54988446 54779783
4953.99 54639258 54382751 54012895 53741055 53608418 53388403 52982290 52569730
4969.42 52316409 52197927 52086084 51861227 51508667 51138546 50838764 50576910
4984.86 50312846 50068251 49838047 49595778 49363555 49124996 48819694 48538765
5000.29 48427344 48356518 48101370 47746400 47481413 47263979 47037316 46888621
5015.72 46803736 46642179 46337926 45924268 45538608 45359202 45336252 45225998
5031.15 44972612 44729387 44542003 44289937 43911656 43553551 43393877 43333993
5046.59 43121825 42770635 42506979 42383689 42268324 42082432 41838437 41568388
5062.02 41322152 41144352 41007484 40850290 40689597 40558980 40380922 40096422
5077.45 39802657 39586517 39422173 39291632 39162724 38928419 38568605 38204266
5092.89 37913211 37684322 37512819 37379489 37224681 37010668 36728553 36404865
5108.32 36148695 36018108 35862958 35541835 35177810 34960625 34879529 34814692
5123.75 34709412 34551375 34265530 33770007 33232782 32991109 33015975 32911207
5139.19 32581382 32321735 32261777 32250744 32152917 31950360 31704859 31455059
5154.62 31136356 30762468 30508533 30411382 30324830 30255220 30277404 30218739
5170.05 29946913 29672867 29519840 29311943 29043606 28880160 28739039 28522141
5185.48 28384694 28358100 28279941 28135909 27937760 27593221 27249741 27224750
5200.92 27348275 26957872 25929818 25175618 25455071 26247993 26581913 26288583
5216.35 25830318 25594714 25549696 25275274 24692755 24396869 24603545 24765943
5231.78 24680275 24653540 24677478 24604837 24521407 24284630 23590647 22718653
5247.22 22392081 22789286 23231079 23130833 22832846 22873755 22923082 22420678
5262.65 21691072 21447138 21733193 22075507 22222435 22250959 22204041 22003379
5278.08 21680201 21394420 21219588 21118108 21017931 20829267 20605108 20560661
5293.52 20692177 20696925 20440974 20133678 19983450 19962438 19933237 19864374
5308.95 19788050 19625689 19352571 19161505 19122675 19070727 18984351 18895949
5324.38 18616760 18142283 17843806 17884372 17964509 17715731 17109128 16559739
5339.81 16399071 16324940 16047614 15983535 16368649 16571133 16202217 15859299
5355.25 16097498 16617651 16838392 16593874 16139689 15833048 15818597 15940079
5370.68 15955751 15733714 15318485 15005944 15101310 15393213 15339231 14933135
5386.11 14712745 14802203 14723789 14254920 13771600 13659204 13876833 14134058
5401.55 14222807 14164159 14055340 13813514 13325586 12800416 12585900 12727300
5416.98 12992111 13162972 13196196 13155235 12964112 12535259 12174655 12171108
5432.41 12219211 12055245 11931908 11898621 11728514 11580802 11642222 11677233
5447.85 11586799 11548209 11548809 11487720 11353027 11092177 10810811 10795825
5463.28 11008860 11112970 11022723 10871307 10652793 10350670 10154307 10220656
5478.71 10416261 10504324 10437425 10311799 10161563 9956823 9749685 9671597
5494.14 9750173 9840374 9793237 9613615 9443797 9421208 9504067 9515113
5509.58 9414018 9311857 9217410 9073776 8961256 8977053 9048310 9036310
5525.01 8897070 8699777 8571342 8567502 8556431 8354417 8017013 7796029
5540.44 7742120 7653208 7506935 7523117 7679233 7643599 7318511 6998944
5555.88 6900034 6926241 6954654 6989795 6993046 6848123 6583107 6431477
5571.31 6513795 6592786 6405814 6102337 5997645 6075730 6098089 5994775
5586.74 5875092 5798948 5696031 5540765 5499496 5667625 5825060 5786247
5602.17 5686830 5636501 5501978 5215151 4945737 4875213 4951916 4972701
5617.61 4935801 5042724 5219480 5140110 4856179 4727883 4733070 4618505
5633.04 4513856 4591181 4578818 4330547 4183127 4258261 4263109 4157108
5648.47 4170880 4289430 4342736 4298607 4171891 3979814 3820419 3766493
5663.91 3762134 3740008 3731327 3734562 3627641 3423876 3329719 3333524
5679.34 3241869 3157700 3245244 3307881 3238788 3269212 3400218 3395213
5694.77 3309623 3268975 3127572 2876482 2760977 2790969 2788329 2787301
5710.21 2857166 2880757 2809686 2744379 2731777 2761117 2804442 2793585
5725.64 2712260 2588729 2411034 2228525 2136317 2119233 2164800 2305808
5741.07 2415203 2366087 2277347 2222746 2098900 1984171 2072034 2254718
5756.5 2295511 2227178 2165509 2030739 1815756 1791841 2069842 2280587
5771.94 2091200 1733262 1614835 1700604 1698116 1618933 1707730 1958731
5787.37 2122258 2093845 1948533 1731301 1508756 1427335 1478151 1456281
5802.8 1348703 1269404 1354206 1449086 1557213 1697916 1668930 1383095
5818.24 1130352 1146159 1285040 1291211 1193633 1124072 1128474 1145839
5833.67 1120899 1003995 836639 852757 1000465 1312030 1462483 1405556
5849.1 1233372 1087017 968181 939266 948332 935124 898004 847549
5864.54 811154 833020 1073147 1213449 1121939 883649 806282 802242
5879.97 812891 747538 701044 660259 659327 719833 824208 879732
5895.4 810269 697808 684433 681558 761438 710114 667704 728018
5910.83 825816 782389 711357 687955 680708 690727 711270 594667
5926.27 508650 607046 709230 741788 852673 837318 712057 609112
5941.7 583281 598632 584340 614765 674201 569224 476447 527908
5957.13 592154 559130 533105 500129 395081 279165 461108 637553
5972.57 764508 772829 619761 424324 470521 695362 708248 527374
5988 539651 527492 576197 726114 733145 711348 464879 381874
6003.43 446813 477769 550216 633950 632639 663668 704418 621771
6018.87 535246 498530 440523 418122 508074 460686 547302 573555
6034.3 499470 461026 430495 488627 522462 505023 453262 333384
6049.73 340711 372975 385299 427848 477194 560335 499715 472709
6065.16 537532 517754 456002 488924 544638 540715 498969 460717
6080.6 419032 418530 434538 406428 434429 491718 635154 719579
6096.03 535197 402280 456230 557537 559962 521737 535604 392976
6111.46 301427 320809 323626 400340 579211 633244 475755 512920
6126.9 617173 512185 411995 397016 404716 568584 649463 685463
6142.33 497740 517680 420606 420098 447926 551903 605895 580350
6157.76 502470 516773 573108 735598 604515 643082 504533 362958
6173.2 430698 476949 429371 516585 571712 463477 293084 439011
6188.63 383260 410644 523966 565992 529549 502120 409200 385044
6204.06 411281 336085 390265 434542 403576 555032 488834 398654
6219.49 367752 396958 379344 418242 446063 427951 398104 497708
6234.93 513425 561178 559738 389021 386143 475837 474436 428744
6250.36 575936 638989 632233 529106 463687 446939 473489 525886
6265.79 483577 477223 559238 522655 508854 552646 448805 354534
6281.23 565480 649214 561321 567114 537677 537790 555779 682990
6296.66 485939 433728 398085 311040 427098 512469 605840 593226
6312.09 515413 451630 454589 498921 561863 494661 460654 423071
6327.53 561188 577198 495082 399213 223637 268395 355194 349367
6342.96 304350 406131 598777 683399 502519 417901 366644 314748
6358.39 312937 432943 589878 630228 616650 520023 464474 469859
6373.82 417733 498972 473209 431965 339226 406067 452961 396020
6389.26 374080 430485 483905 506443 520179 427489 423712 474577
6404.69 354476 262196 371937 425010 485035 487892 576023 571731
6420.12 554831 526763 559644 426326 330909 350446 489548 618190
6435.56 561136 565473 500717 559627 596961 667451 495497 539538
6450.99 508174 451426 317910 359266 327862 448578 485509 500119
6466.42 615289 618154 647817 605163 541270 546046 566665 452525
6481.86 367462 339022 368258 501434 553557 429583 484113 546183
6497.29 502716 531819 537877 487330 513278 390785 356893 333231
6512.72 337022 395781 442533 476514 521446 681390 717223 639732
6528.15 581581 632670 585323 429865 460602 450265 495755 587980
6543.59 514279 463968 439530 357018 322684 392941 427989 483225
6559.02 488329 450361 461759 429147 503749 505084 466450 567396
6574.45 528107 364006 286892 372834 391549 440248 527572 588423
6589.89 623550 573377 526427 474952 305162 280603 389167 456688
6605.32 474429 421366 329398 422017 578703 602234 572286 550820
6620.75 576979 495189 565869 573361 478019 386873 434141 486056
6636.19 467862 501893 462866 523974 609586 572324 432573 374671
6651.62 452317 537333 627313 578274 439963 316940 385196 424072
6667.05 553510 572956 639270 495803 426808 336378 398871 485941
6682.48 595950 577139 662492 666296 579102 463984 421316 401980
6697.92 476373 496437 482703 417851 508136 519014 375540 464919
6713.35 572567 551635 607705 599760 511369 482351 510673 468073
6728.78 431378 533975 614017 469508 354685 482245 512862 485069
6744.22 480173 502283 508287 544095 526260 432256 495620 576080
6759.65 498386 564829 572984 469635 449075 505910 497963 530436
6775.08 677167 704129 509979 346702 352150 414300 428897 405090
6790.52 378810 383386 327186 352187 367032 325862 314881 380882
6805.95 490126 567074 468222 386132 397742 484301 508348 449933
6821.38 454977 441326 461650 519132 567455 521119 554911 535062
6836.81 539938 519853 548422 618224 658739 537296 511434 560114
6852.25 583338 619078 613146 556341 585007 504037 554620 646547
6867.68 626251 533563 572871 546363 488290 485248 449388 395095
6883.11 345988 261430 273633 321016 349721 401223 538769 609722
6898.55 493962 421635 536681 501594 480658 367204 259926 249730
6913.98 332181 387864 499803 442947 479364 518761 530168 504223
6929.41 379277 363982 348586 477069 627556 529455 480183 510459
6944.85 533364 533663 520802 575434 663407 611814 414124 464975
6960.28 567013 563068 459067 363132 350053 584225 753542 724286
6975.71 493360 378134 310737 365576 496142 583995 503374 519113
6991.14 480762 497371 592980 609465 579532 554698 489014 472858
7006.58 345564 323440 334997 250197 269323 332849 497051 615418
7022.01 491515 357847 368821 384151 439193 413518 372453 343298
7037.44 371496 440246 495746 567005 592668 449928 306937 363439
7052.88 431120 427658 459243 385082 305944 267091 428483 458029
7068.31 421593 441698 459163 414769 324432 407606 459083 472774
7083.74 527940 545241 531337 532003 524603 607423 538190 445390
7099.17 335750 380701 476382 443641 387834 410583 368040 406826
7114.61 348144 273039 391692 475006 523401 571108 525848 430054
7130.04 366691 444734 448936 462111 509142 589368 530655 382322
7145.47 382359 477393 461029 470176 427378 447926 428243 492292
7160.91 622886 632269 444675 404442 438306 466670 456780 489496
7176.34 502149 449878 523905 583295 586818 459503 388924 469645
7191.77 450811 552465 517344 503391 493407 362721 410032 507171
7207.21 523419 481371 517506 512976 437261 371461 313282 425851
7222.64 593248 569654 500888 469172 435187 451605 518882 423558
7238.07 309140 518731 524940 400835 422156 451692 408739 430788
7253.5 464497 533108 497915 603688 485201 377472 405607 382950
7268.94 475289 392415 366816 574357 657641 444210 391266 399528
7284.37 345424 380809 462053 440802 486824 535961 520443 505221
7299.8 425308 464737 364442 392175 561532 517639 371930 300502
7315.24 319653 349698 292684 320051 442912 494148 452886 435530
7330.67 478608 452192 365566 352021 369268 313503 338292 411894
7346.1 456585 410815 316265 448668 568360 715883 673005 559790
7361.54 377579 417218 393514 274115 308641 347388 359671 338584
7376.97 328257 383203 405276 369634 429082 321130 433939 589431
7392.4 562020 451755 323939 280577 342052 505253 575731 532454
7407.83 553732 468003 498944 495088 446699 330201 324282 468894
7423.27 470427 415968 533132 560823 494510 400645 501552 526495
7438.7 471358 437247 315802 365839 395230 395882 520153 637237
7454.13 710828 649317 507288 506526 608059 472516 391359 364293
7469.57 366843 383952 352493 289935 350464 550358 540196 579940
7485 555583 456106 472421 395999 388659 436130 388585 317187
7500.43 285221 463819 529546 425882 438515 477374 405415 371616
7515.87 401240 440719 408773 353039 276401 286613 337319 418893
7531.3 416902 376687 389711 393292 428191 470067 500266 392010
7546.73 447634 429043 335403 487758 601097 546769 513459 530258
7562.16 555415 498044 451603 445524 400492 431416 475137 467477
7577.6 431334 496041 563743 552175 461057 341734 385051 432834
7593.03 467938 504502 415831 427813 496237 502286 437122 421585
7608.46 370970 426014 465917 462911 376714 381911 387911 350496
7623.9 348845 477977 544344 524058 527777 489994 508494 473681
7639.33 380563 415724 469859 451105 475920 447105 412684 368501
7654.76 375645 397371 421836 497620 475151 355643 358760 333993
7670.2 336764 296382 402143 510085 622749 606770 558852 551231
7685.63 604461 516852 419622 372944 361984 372027 469892 465158
7701.06 409628 465327 593940 627146 636896 566980 613747 512652
7716.49 474161 454486 480876 595870 597974 542315 449624 405781
7731.93 374297 412400 417957 395832 400215 384434 429772 506439
7747.36 390186 408044 480636 443168 433335 499675 441952 476023
7762.79 530764 482107 365466 472603 497262 559695 504163 617973
7778.23 572206 582696 552247 527612 469427 353211 384551 381758
7793.66 376177 409317 427778 434226 493537 457301 408706 498138
7809.09 481386 445017 476889 488704 529075 471363 435257 487185
7824.53 457580 480555 515645 530814 515983 372884 401335 545556
7839.96 615957 583531 523459 576121 669971 606103 654845 637259
7855.39 581124 428113 303393 390398 387078 503109 543047 534089
7870.82 565808 477522 466829 437774 407933 437428 508296 444696
7886.26 393472 352151 461263 490291 443408 351726 280495 339714
7901.69 483733 550773 659603 582576 602955 544765 510680 432494
7917.12 362109 342172 417976 466193 451816 504863 476552 428049
7932.56 443622 469101 531695 541424 466871 434182 401661 379693
7947.99 377706 329527 331236 442400 447561 517183 563938 519151
7963.42 534897 464770 420170 352670 444669 518547 521422 487978
7978.86 440135 471809 572349 551574 543641 568914 421190 423620
7994.29 490829 567887 603264 556375 429825 354666 360667 301406
8009.72 376093 424038 385529 399106 479495 540886 561875 609332
8025.15 662673 632063 513084 439602 401282 395362 386560 342498
8040.59 440882 465533 542911 585074 652479 628258 532238 357936
8056.02 265078 334979 408402 451605 483445 352792 286771 373077
8071.45 452133 465371 481387 524177 574789 569785 423721 472327
8086.89 438816 358450 325668 338740 428128 447874 369261 453497
8102.32 562740 629183 567186 604753 695962 460892 428761 341195
8117.75 426968 278485 333314 415717 376583 439537 510721 498267
8133.19 452959 506160 511566 607404 643400 611873 497417 452411
8148.62 483398 446332 368535 373048 343408 382482 502807 496457
8164.05 391138 429723 472899 528488 484147 454537 402202 397049
8179.48 418781 509592 467232 510116 451283 398334 463772 495443
8194.92 342903 402910 446104 460153 570580 433798 411766 449992
8210.35 547581 477587 355214 420177 487484 552275 476451 524109
8225.78 523800 501689 523387 378627 342292 379012 463743 421308
8241.22 362768 423317 553585 454329 382902 326908 467149 565692
8256.65 499730 458771 518499 420734 318781 345708 352847 397625
8272.08 380324 379445 399495 382365 277443 442609 513580 535354
8287.52 442812 439552 487007 546690 550951 541703 502101 441370
8302.95 418996 389393 421904 441206 483769 418507 315592 386148
8318.38 409752 473843 455708 333465 368791 378103 387502 492838
8333.81 473643 482106 426332 444243 512857 527583 568571 636651
8349.25 594109 517157 479552 320361 327664 405942 441628 402237
8364.68 494701 399280 439556 480541 503986 515449 469048 406826
8380.11 390178 428446 442543 503051 459515 536603 550890 461079
8395.55 516420 587376 550121 485994 464302 368198 335170 386969
8410.98 421896 416069 364081 417687 527600 534502 437555 395694
8426.41 329468 307448 379022 486532 393281 448155 383865 420495
8441.84 433438 427663 345859 448982 565465 504189 534052 523090
8457.28 427304 347059 412209 367694 337243 410381 478189 457022
8472.71 444625 470681 600205 595640 458422 314549 428855 504495
8488.14 515640 535896 492545 499910 458052 410647 382925 463997
8503.58 501163 503870 422714 368701 288955 355439 436970 468578
8519.01 417327 332755 355915 443740 498488 502304 403577 408752
8534.44 394188 395447 428719 314843 222689 305779 377081 361608
8549.88 289050 349126 412571 367737 329279 411311 366750 338021
8565.31 445156 459842 431819 389334 323212 321455 348995 355472
8580.74 336356 377719 381696 387757 434085 489672 458067 432284
8596.17 364260 404510 528460 579217 465322 398756 326026 404087
8611.61 387846 304484 404420 403032 396529 395852 464791 516102
8627.04 402832 317461 455970 448571 361371 463227 481411 414579
8642.47 382168 427015 438928 437328 547989 533107 352777 326485
8657.91 445323 518880 410637 406736 284072 433091 553282 447847
8673.34 408102 479577 427161 424304 462807 479480 352702 365875
8688.77 354980 356910 403781 498040 509945 459201 471267 426312
8704.21 359943 410335 415799 460665 550636 500461 491602 450363
8719.64 432037 465607 484049 382353 286253 370940 504251 498906
8735.07 366449 340402 342377 328112 301501 385038 456598 351561
8750.5 257231 294440 300233 405859 419496 399464 515032 601690
8765.94 601970 481946 395952 411543 424390 401494 371059 340673
8781.37 412400 411796 458486 332731 261299 309674 323649 349324
8796.8 376852 433404 423064 297429 394220 425859 374911 434442
8812.24 508738 520615 521797 545595 445233 323601 266352 339037
8827.67 390119 428354 513431 492170 440539 437766 385522 325477
8843.1 323774 384102 430488 439052 384677 399141 440484 411604
8858.54 294137 310910 451009 438173 354392 352599 378717 485012
8873.97 559709 543316 471009 449482 384168 418618 499062 433436
8889.4 352337 324500 333791 340501 380840 436134 420386 414480
8904.83 426787 505496 498823 405635 313019 341230 412841 438150
8920.27 476721 350237 247158 299503 281357 297630 256908 286951
8935.7 395437 421632 445034 329080 353396 339142 279124 321193
8951.13 322766 325712 380989 438061 449242 378390 229980 320649
8966.57 410479 487078 420283 325137 233397 315181 397036 247786
8982 283042 295803 383395 417183 365544 292373 315746 385286
8997.43 427838 402574 387655 366108 355017 389781 366483 287873
9012.87 281494 421288 443560 486344 443886 364454 392009 366748
9028.3 326445 422323 421137 427815 445979 445536 361859 427435
9043.73 475740 453466 399706 340849 364904 297606 313184 372369
9059.16 338162 314972 395812 475878 553447 553582 543819 454491
9074.6 448339 310212 327798 260861 325355 380907 375012 411265
9090.03 376868 452324 440731 445130 482338 547906 488574 478753
9105.46 375948 328487 291963 293692 302381 325042 338305 412085
9120.9 534783 571059 452452 345342 446390 504596 570925 552908
9136.33 510088 462018 440643 465919 521042 542793 464732 361322
9151.76 374753 302731 346584 332793 345856 475204 472811 458819
9167.2 384323 426678 441318 369680 411404 373820 373035 403583
9182.63 397881 352918 357395 481375 517966 390411 340442 368171
9198.06 570802 631243 621574 590298 470853 360562 350653 409166
9213.49 426242 462552 508282 482887 364735 401831 450534 397628
9228.93 385850 380603 360478 358393 349503 467046 608082 627805
9244.36 550426 380505 288239 309365 359887 396148 397463 349920
9259.79 383859 414583 372257 365542 406062 420984 476977 527738
9275.23 447015 455566 444762 437964 426063 360696 343115 300353
9290.66 335003 358347 291939 404925 452618 425923 377236 336759
9306.09 337929 332535 272456 286923 291513 342773 364220 343350
9321.53 462146 421457 380536 377580 312263 312359 268165 329167
9336.96 326511 315178 283384 277723 232924 238317 323603 375755
9352.39 396399 362943 327375 297827 339862 418452 490996 451105
9367.82 384433 340812 360314 385422 430361 444813 446946 446907
9383.26 509281 441813 396913 344797 441091 386013 362783 418754
9398.69 465216 519104 554358 403519 354546 292282 246945 297267
9414.12 278991 390524 415919 398215 429306 418054 396013 388394
9429.56 420246 405452 384184 348924 348213 358840 369136 454027
9444.99 439627 388188 402872 319859 284429 399396 546323 446155
9460.42 315124 304458 372452 447096 440342 340737 314891 411448
9475.86 478404 484664 463292 315357 291338 369730 427119 496136
9491.29 483214 472471 512768 409760 366984 347862 417911 452938
9506.72 511203 475710 371182 318182 353660 345241 359274 419194
9522.15 420155 452883 408146 368515 289916 268191 349640 339132
9537.59 378923 368663 387443 436325 452880 389693 241858 320108
9553.02 448066 477685 412066 354470 354969 315794 384020 438211
9568.45 404684 367574 363419 357878 312038 342758 461463 572814
9583.89 618687 570626 407973 353419 333972 204176 261691 325937
9599.32 309852 367009 472373 465288 482072 414288 443777 440229
9614.75 334575 334492 296819 340769 499543 480765 329467 307992
9630.19 403188 341666 363783 351501 399015 361368 261094 320405
9645.62 401409 368083 370652 470258 538650 584585 476582 411173
9661.05 389383 392012 367925 346044 442310 495596 426362 302857
9676.48 329835 402760 360086 389547 271065 331610 289602 418005
9691.92 463909 427965 363264 275618 214835 202481 273461 267590
9707.35 364051 481285 515179 407440 407949 410505 344276 299905
9722.78 344851 345572 435219 461757 348008 269725 267488 333433
9738.22 414172 354175 383968 409758 438232 401311 375804 340070
9753.65 329098 380138 372464 346468 478330 490899 454015 400026
9769.08 371975 414038 440456 379585 383318 386720 367711 385602
9784.51 418763 371126 330750 307322 350575 394382 410029 357171
9799.95 381578 325825 288917 362426 376441 316438 302303 288946
9815.38 266395 369644 443270 382372 334155 305075 324648 343007
9830.81 360790 378389 358418 306613 308486 414183 463076 432873
9846.25 351757 408862 386416 338698 367567 413721 442837 376809
9861.68 350013 338488 352385 352391 310517 346621 406378 401004
9877.11 335909 396060 341437 340863 417985 449923 387925 357646
9892.55 307525 297374 310744 319603 399960 476988 424894 435578
9907.98 370592 339639 263527 272100 244323 291234 472977 438668
9923.41 418869 394502 478794 468205 444323 460879 475821 352372
9938.84 302537 276461 341938 368199 410366 418485 315093 255858
9954.28 251801 322149 370406 424539 404904 280216 304863 299511
9969.71 312855 303765 304813 410577 387982 454651 453577 484530
9985.14 560584 508522 449966 370043 477367 431696 384545 378598
10000.6 326020 317051 297161 292962 264311 205275 249298 342207
10016 364588 328268 296920 297957 391621 371359 374413 314100
10031.4 312759 405292 460221 399387 290362 292848 345017 316679
10046.9 343979 363786 347864 305388 303678 326430 363289 404667
10062.3 475472 495457 450353 420994 374406 411807 456361 331916
10077.7 294393 382091 447489 465268 449003 398972 371531 341080
10093.2 252976 301516 269164 363878 429244 347312 263846 451272
10108.6 456528 451502 407175 325983 367159 432298 380141 266069
10124 312919 264585 332338 300109 333379 405541 379216 468327
10139.5 431627 444199 415450 312570 296110 401829 455188 380904
10154.9 322504 306859 289386 321254 262059 250366 271937 286032
10170.3 244635 360184 345582 316755 391446 396854 356851 236944
10185.8 297246 414138 397702 383523 380398 457428 417148 341515
10201.2 300771 228872 264143 278586 332912 340408 362930 382269
10216.6 385078 385758 342163 415146 394306 473167 502392 409594
10232.1 383134 430543 368804 293384 273388 334609 350477 360121
10247.5 411022 509790 548113 460774 370922 419091 488711 363134
10262.9 372950 354363 266313 328451 446811 388683 310152 300765
10278.4 379545 358650 307252 418482 469475 384435 310348 310264
10293.8 310139 220706 225986 275550 268059 356798 271714 230805
10309.2 216331 282047 400595 407484 342871 298307 308470 278202
10324.7 349055 339554 299350 334974 376565 340836 327575 339847
10340.1 390123 440161 419249 396889 374525 330669 317695 360897
10355.5 457829 492714 426753 367430 279055 284012 432933 487548
10371 455577 387736 360761 374095 370960 402373 370393 334775
10386.4 354652 395893 473944 428788 316399 261171 199177 312961
10401.8 397350 350727 422404 536495 470867 388616 261253 207433
10417.3 245042 298574 331323 361174 262208 269802 447980 535022
10432.7 556344 476713 358135 306876 304830 362289 415264 400811
10448.1 302778 296907 392509 396543 356111 441056 428143 411645
10463.6 413885 493388 392518 305608 405697 464855 381400 347015
10479 399216 412994 335078 370079 498612 476195 378431 318459
10494.4 318168 363554 390872 363274 321669 371445 353755 314591
10509.9 248509 291946 316386 290940 368636 415668 403573 384553
10525.3 370179 303917 359722 419510 388531 291630 306224 317056
10540.7 391110 403176 295652 292551 289020 256854 338937 416569
10556.2 454111 431150 429025 317899 297510 355685 372750 404241
10571.6 456224 476650 395072 279517 254434 395286 378695 367846
10587 412494 388138 235564 187940 267393 313434 335440 338239
10602.5 264952 308005 284982 313798 436995 458068 374905 401420
10617.9 406639 375257 347578 145845 243808 324822 349575 325737
10633.3 308319 413050 452002 429710 453649 345686 413349 409911
10648.8 273434 212273 303197 322630 362630 385792 323791 315662
10664.2 332543 321842 323360 312001 248558 208718 317625 456548
10679.6 499102 461031 398879 375737 393546 337401 330560 326212
10695.1 393189 364272 352485 349432 363034 402386 421755 376845
10710.5 343142 360410 430373 389822 338378 351019 347307 392306
10725.9 340874 329938 264740 249645 227501 212454 267879 330778
10741.4 384588 434465 445808 449019 426321 399523 407089 366278
10756.8 359184 301648 227430 261387 303305 326062 414190 434173
10772.2 367625 319275 270384 263732 266050 306793 410011 387809
10787.7 329318 281466 331244 365195 362295 276873 289947 321824
10803.1 263560 232161 278474 375085 464278 401784 360595 313132
10818.5 330965 425636 380733 281390 298003 328530 323360 335014
10834 351494 303548 287324 268181 238951 233344 276832 335609
10849.4 396627 339339 361493 320650 319063 302039 338720 313465
10864.8 322383 420690 452321 353877 379354 397078 397574 339277
10880.3 348418 400824 348952 442088 444659 290315 290716 346291
10895.7 453905 418341 307951 330036 309671 268273 283187 259459
10911.1 359316 483474 446476 382231 390948 391240 446149 428153
10926.6 343215 345308 314634 308187 318694 286313 248621 311203
10942 430913 473220 456497 423939 363620 267799 258305 251932
10957.4 313738 398248 446201 473982 424541 368238 252976 259129
10972.9 248647 259177 326863 380595 390848 384824 420990 489368
10988.3 529131 428158 388399 304764 303083 410528 469699 439024
11003.7 358544 363700 357671 259550 259583 359685 307899 340287
11019.2 418195 426473 352907 348588 313758 317553 328210 373399
11034.6 435603 364349 227049 225575 263423 248507 287076 304131
11050 315917 338204 346716 326631 362471 346245 261598 223824
11065.5 321686 365369 290955 368463 429298 430903 350585 285264
11080.9 221900 285552 309311 297152 372742 330288 312528 324682
11096.3 359495 368104 397112 309863 328661 372982 370390 416947
11111.8 390839 351463 344106 349269 281178 281379 332398 344462
11127.2 323937 369275 362421 378031 393531 399320 375113 324318
11142.6 291418 251429 329808 362198 333085 295519 297837 344957
11158.1 371735 324084 272161 302176 311646 287121 292266 369507
11173.5 417923 450954 419573 356885 353578 302365 370345 347398
11188.9 286046 281411 256689 319922 364516 357332 383939 353739
11204.3 297335 276268 283341 325582 351259 345343 361559 285621
11219.8 370811 393969 380431 242018 265391 338388 347396 310124
11235.2 225618 285750 375269 359153 389947 348312 304494 405708
11250.6 427150 359720 264689 256270 367396 481162 413855 336647
11266.1 385677 377415 418936 385687 284500 336232 357289 295138
11281.5 245182 312597 366395 404821 445818 442504 464843 368435
11296.9 263933 247491 192632 162565 228194 323020 345835 314898
11312.4 371760 385047 377918 372930 341897 316932 238823 208588
11327.8 241909 345265 381678 308508 299618 308516 372623 288147
11343.2 183443 261705 266925 270289 285962 425540 389484 276736
11358.7 275049 321693 374574 396169 406286 231454 265847 262487
11374.1 236042 253250 273995 228541 235031 330391 374949 299756
11389.5 354297 351405 301370 277027 282567 286971 254382 233883
11405 302876 299560 273285 292133 295866 346900 369591 332498
11420.4 363165 381006 341270 347642 351702 322581 266456 253442
11435.8 244902 249962 234521 257443 240254 299448 315514 324038
11451.3 283850 293605 242005 309328 254061 239024 266377 308995
11466.7 378008 349536 322472 377473 350473 346028 417581 377533
11482.1 253768 252585 381991 379917 365634 330332 267166 286117
11497.6 344653 362536 378510 380922 371623 406081 366958 320681
11513 293895 306272 352165 327838 285699 329479 339197 267951
11528.4 241152 360440 523946 505655 380628 308766 335177 276265
11543.9 274090 305489 325068 339519 381386 412586 311029 246666
11559.3 278153 283514 409728 422745 422895 388526 330712 343584
11574.7 241582 181813 263024 358702 380676 478889 419394 345612
11590.2 274869 255068 297041 348734 298219 264576 286108 312052
11605.6 237029 247715 303358 364425 477883 444502 415638 333606
11621 350847 378004 339809 398119 412847 320623 348317 347050
11636.5 349258 270225 259416 220468 251828 258679 342840 328410
11651.9 280468 369824 468828 465668 439487 301714 266208 208951
11667.3 316254 401555 467394 421545 368395 315625 376940 371476
11682.8 278753 287769 299819 304143 304403 244089 328609 386267
11698.2 324584 419033 449029 425848 343437 309648 345974 345064
11713.6 303610 336119 369191 440380 460703 427208 387698 329254
11729.1 267136 208612 296180 326243 315433 366791 411074 323628
11744.5 302137 332922 333867 295018 376482 362073 277437 329131
11759.9 369177 341489 311101 293186 287821 316307 351746 343648
11775.4 381925 359552 361068 318141 334571 333706 303915 279040
11790.8 294240 290681 248628 371382 503351 426867 348148 327151
11806.2 338926 365939 391458 339994 312571 334515 306133 291962
11821.7 313580 348069 314469 308079 385692 337813 318318 335206
11837.1 349098 311539 367618 372969 322282 347134 333128 341979
11852.5 327286 249602 235598 218189 194297 216485 309302 393118
11868 400926 327512 353275 394753 377979 329146 292630 286520
11883.4 360340 377305 378462 371501 318415 267233 288747 304104
11898.8 261395 301784 350300 345680 316371 306198 286881 255127
11914.3 280391 279328 296828 338541 411527 352319 365358 319350
11929.7 296598 269303 259327 282793 300395 293094 350531 418899
11945.1 358332 341463 332874 290048 333887 335700 301606 291417
11960.6 335434 378061 364329 343851 334255 343349 365902 339393
11976 331849 281707 256449 305509 261002 325251 360049 265884
11991.4 312837 337540 330050 310822 274243 295582 270622 309381
12006.9 350901 293262 346378 466534 468923 365331 267011 287978
12022.3 346189 305818 335777 318805 294656 236760 279099 390454
12037.7 406056 380791 358186 349047 351783 332510 303999 333013
12053.2 372457 353107 277733 247395 244916 240718 277903 233047
12068.6 243707 278771 338586 359256 292511 320735 381241 368138
12084 313610 342269 340076 335459 294221 306714 346146 403272
12099.5 384016 301547 279849 368991 338957 235185 234894 277021
12114.9 276455 270813 259795 271996 349017 423274 470294 510402
12130.3 483648 356669 263611 281261 297701 278255 303550 304961
12145.8 280715 304669 323111 314849 364181 334819 383063 405261
12161.2 291625 258645 246520 272568 243406 363306 436626 399904
12176.6 319445 313619 321920 375512 382613 335582 341135 318796
12192.1 325766 350848 372257 363681 332263 336193 287782 328839
12207.5 398486 418216 347736 275616 264415 251575 270899 298525
12222.9 309298 242673 240552 325269 390364 342897 353258 318722
12238.4 266066 298873 299995 361859 401715 384250 298474 218330
12253.8 270460 278561 273909 287695 365152 314876 320811 314866
12269.2 223931 217756 302211 404203 375476 334051 321972 296328
12284.7 232956 237430 243018 271070 320495 304673 253841 243701
12300.1 260097 294004 259689 303495 311373 321234 344733 339917
12315.5 322616 274957 240828 270732 224925 301154 340516 397820
12331 388104 303569 302839 327178 334009 406858 426950 390326
12346.4 391952 343382 285579 250983 186574 280506 329856 349100
12361.8 393652 334716 307374 328608 280583 173726 206323 253350
12377.3 255791 298242 288276 316002 350400 330619 347852 397361
12392.7 357192 359589 393311 402994 356435 352088 362002 341426
12408.1 389703 415410 313281 244854 248470 223594 271457 266869
12423.6 380376 415922 360467 383534 362129 375571 275553 236217
12439 245633 291551 301218 293251 351897 374630 410556 436987
12454.4 413763 427806 392106 336431 333638 377741 373028 325113
12469.9 306132 397115 368948 293178 344789 287190 255487 262751
12485.3 257350 286947 338064 325050 319831 301932 292220 269459
12500.7 271549 213895 243831 324041 349858 358313 395102 381013
12516.2 400535 323760 283742 326230 306118 262583 285577 320210
12531.6 298485 246758 226348 235551 258608 324066 304119 178764
12547 205929 282015 296299 253443 328375 429014 448851 463670
12562.5 467021 415779 285990 221806 315057 322557 272026 244452
12577.9 301848 385801 324985 316225 323175 357843 386929 282317
12593.3 322998 240276 252962 325485 324657 405987 430093 311104
12608.8 309169 353477 338986 372038 347148 300356 288384 356736
12624.2 384832 346439 397767 378479 282442 258589 236162 305244
12639.6 302158 310174 374708 329356 254060 239506 321564 404099
12655.1 381824 312520 258262 228359 208965 302933 354494 342110
12670.5 269548 287933 320279 330371 309132 346753 296574 338313
12685.9 335701 368650 376582 438101 467894 344341 181834 227466
12701.3 326512 289953 212351 265047 283764 274718 277508 299418
12716.8 297593 274267 244276 224296 245810 307029 357409 404449
12732.2 402826 340794 297482 263258 244304 301016 299741 297647
12747.6 365484 378151 273710 179358 232565 321096 345871 315366
12763.1 295359 373987 361172 337891 316150 349384 308146 280251
12778.5 265114 196727 233368 383980 457030 397489 368469 351822
12793.9 358852 366337 374180 297975 301582 308941 302513 280374
12809.4 258698 312138 360029 343689 318772 345078 326335 326706
12824.8 336371 302631 259849 310288 330324 313027 438519 427378
12840.2 341063 283771 242108 300993 307609 281964 309501 353388
12855.7 290758 258646 358327 403712 407219 399604 350315 319551
12871.1 341981 348352 339840 308861 325306 338860 317500 357592
12886.5 336980 259027 292764 370492 348166 298284 358667 406751
12902 359444 320984 368898 374980 384461 363295 290253 307613
12917.4 319017 316902 369384 360495 397041 416718 363389 374292
12932.8 397003 314001 258392 277895 297075 269203 273058 282837
12948.3 346265 367389 288789 265640 321121 324631 273065 232519
12963.7 279492 374631 412458 324026 242827 276740 304060 346370
12979.1 351956 350616 426915 432548 377530 307050 251062 320688
12994.6 376581 395848 304087 232136 258302 373093 514095 470308
13010 294235 257453 266789 264778 234137 266191 300633 340718
13025.4 311077 301273 308857 317496 352841 383215 341326 268020
13040.9 258822 272293 305370 333223 285581 267710 308020 263031
13056.3 319825 310161 259642 321483 271776 259315 231095 316679
13071.7 364936 282755 181100 193398 257389 331305 426224 453737
13087.2 355459 245690 289602 236847 227457 292173 299705 254126
13102.6 284850 336612 375435 391991 331571 329574 305709 368552
13118 468917 458969 377746 325746 280833 295439 362775 391604
13133.5 292230 238237 266492 280653 369103 412498 418454 283621
13148.9 246268 228216 201871 263803 257773 222037 245799 282498
13164.3 281587 292853 349927 351018 358193 295026 248503 248325
13179.8 304957 312821 205886 278588 325771 249445 224089 263489
13195.2 340740 334738 357698 341706 307219 380962 390769 373013
13210.6 306818 218551 208318 238373 274278 342935 370411 359433
13226.1 316328 251751 307336 351928 298153 301630 366918 384031
13241.5 386685 388880 430631 415530 336555 262186 207125 230177
13256.9 291711 329352 310569 314106 366876 340334 315377 326267
13272.4 284180 236825 321480 328841 298936 216074 229567 302669
13287.8 303501 400707 425258 341847 252888 286376 268574 273805
13303.2 320225 348436 380282 337016 316378 303808 301779 270399
13318.7 246415 224130 222135 218218 265037 320386 315090 306337
13334.1 314154 302541 260121 259213 286548 313053 321902 272470
13349.5 205789 288343 330314 300053 294918 281512 207987 283691
13365 308130 343642 354396 344894 269643 293007 296611 361040
13380.4 388446 385834 307403 287658 269018 262494 334835 315992
13395.8 332158 317324 275199 211129 206123 237896 284232 283939
13411.3 327939 360674 375865 345360 361308 387954 356823 295453
13426.7 267312 253708 275892 304140 331423 272467 272486 263272
13442.1 235093 348167 363554 340198 305359 253896 224682 264129
13457.6 270849 308483 355359 363400 411710 383728 342901 373475
13473 424443 411359 339059 240139 203498 232818 257135 222906
13488.4 248330 291735 327645 366137 402745 371699 325100 335563
13503.9 341873 321778 347989 337994 268983 277452 273966 257827
13519.3 236553 253676 316278 291331 267722 233980 235141 290411
13534.7 301022 295539 328373 335946 302026 283562 259029 226425
13550.2 278901 407511 351240 277135 338227 358642 315669 279464
13565.6 300751 261540 218508 233654 256992 211960 218390 272164
13581 291235 246224 287342 217425 248021 244115 310643 311368
13596.5 278058 352105 402616 391960 352422 235288 238047 246574
13611.9 280786 346000 389087 462579 589510 504536 330982 241493
13627.3 163797 206967 254963 271591 303316 361142 299335 241952
13642.8 324864 404359 488691 496418 387446 247445 239605 254759
13658.2 291085 253755 333519 354284 360693 330198 283766 278043
13673.6 296582 228109 199081 276696 291521 273819 278543 290636
13689.1 344577 244445 310854 387534 344843 282502 314617 327758
13704.5 323708 277402 284952 330295 320142 233358 268286 251694
13719.9 282283 390438 506083 443608 370121 359704 320548 309888
13735.4 276524 272072 271651 330589 416107 391062 337592 292551
13750.8 315586 355281 385896 388479 297102 168166 211163 263260
13766.2 322919 302034 272174 257087 251291 285955 299536 330975
13781.7 326061 334883 339596 352494 338181 304003 265524 258782
13797.1 302653 339572 358140 377854 289760 267016 328176 367671
13812.5 295060 218486 237150 269305 320402 314724 283263 215997
13828 225009 272485 311140 254640 206666 268833 317216 294788
13843.4 271791 256124 298376 368067 374035 315282 325031 378919
13858.8 325270 246536 219196 221804 243297 282170 294561 307933
13874.3 316126 251559 245474 290009 290564 304698 226673 313061
13889.7 410273 376207 342715 312719 265017 326577 350138 297809
13905.1 253221 243266 230394 292468 360612 333102 280033 262501
13920.6 250164 236852 282057 347391 382516 291855 216567 277234
13936 273832 280584 296860 271077 281684 344430 300334 307079
13951.4 265530 248373 265009 310102 337707 335303 346895 322039
13966.9 243406 246342 269473 305699 310253 229229 234160 244935
13982.3 339822 337527 317569 357054 279691 192828 208242 256189
13997.7 218723 258755 328601 279947 266214 230396 191605 230359
14013.2 277129 373646 427192 379265 329945 305757 347892 366284
14028.6 300852 248282 316246 374528 415260 363389 224449 200842
14044 303342 305223 279892 336283 319648 269543 233055 276762
14059.5 314555 335452 390180 399592 301381 245640 258616 322523
14074.9 373820 306738 226648 183288 210792 243108 347376 379447
14090.3 340333 303622 270746 291235 376074 385766 330495 312776
14105.8 374503 398941 384779 369471 383657 283395 212874 212918
14121.2 233394 239076 231399 230005 287510 308890 381724 337012
14136.6 264737 215396 265552 255065 214698 243518 325805 353318
14152.1 350929 342224 253949 254822 207215 266443 270616 285291
14167.5 336455 306598 299939 316258 283272 222896 202902 298464
14182.9 305942 252811 250983 242077 255952 259813 272649 307548
14198.3 347361 309431 285337 284070 323574 298324 297365 314745
14213.8 327399 278183 259665 334912 397641 321046 263914 249383
14229.2 214328 247990 316607 284340 335193 274057 261652 294013
14244.6 295477 279558 285356 309522 255181 266717 288682 226206
14260.1 194124 232780 332185 317442 308318 317767 334520 333033
14275.5 299592 246981 225620 270602 321271 335553 303631 329100
14290.9 299673 256230 339204 268294 268831 299689 273483 377436
14306.4 379045 249876 230378 237901 245302 228582 292672 341905
14321.8 399467 410302 393539 411569 391110 327754 266970 306195
14337.2 369953 291300 239896 272643 294583 249603 243913 312230
14352.7 295657 234853 263894 276955 338966 374149 395885 313141
14368.1 290020 304929 350902 347082 318779 320924 353706 334602
14383.5 331752 319920 285062 311587 289087 248843 236633 224571
14399 247334 342457 399922 323582 396147 402935 394292 307145
14414.4 240355 220736 276409 366726 355818 302966 324319 348081
14429.8 265812 241395 281443 265563 311707 284368 295621 354488
14445.3 320495 263459 274254 230703 282199 257147 268657 297083
14460.7 359295 317163 229182 222941 294435 260093 328677 339525
14476.1 257245 275215 225034 256355 286602 334783 329326 348095
14491.6 299500 211471 242561 302917 356004 345021 261925 247856
14507 251916 262682 279951 315928 313455 371525 347318 313379
14522.4 355374 339679 346269 271559 284032 336452 305660 281195
14537.9 317580 300334 271958 347864 346702 258637 265368 341318
14553.3 279375 268905 204482 291645 356723 385694 387398 284827
14568.7 272721 260975 269039 290541 285818 287383 352398 371791
14584.2 310289 267742 285458 270361 208012 222352 239620 339859
14599.6 364228 344394 426276 397084 341186 306952 298631 210516
14615 248622 324659 346814 267426 323413 304246 275544 282343
14630.5 298396 326181 261756 220210 276471 303697 233630 241486
14645.9 175847 172457 226804 241404 202976 200676 237797 250566
14661.3 253258 338676 364339 275112 243124 263706 328882 351210
14676.8 355423 338728 344966 340019 317470 228411 238266 277831
14692.2 247530 245513 294037 287000 260343 253776 236943 253053
14707.6 288375 315268 377340 424799 341440 229191 151110 184911
14723.1 278553 305468 327988 284320 320564 323043 324304 313502
14738.5 290315 304993 313570 336919 345799 326289 350924 327484
14753.9 349628 307632 278069 269025 273931 380432 358824 290759
14769.4 358511 297467 218249 268124 296870 319847 347533 308423
14784.8 288407 298740 263637 237563 237708 219601 241475 255377
14800.2 217435 185002 214802 277058 344328 358031 385894 428212
14815.7 388189 308789 277963 218884 244954 303560 298159 237112
14831.1 219493 213584 213667 343781 381895 356544 364511 337553
14846.5 324767 314825 304147 274137 274473 255029 264138 250953
14862 235254 298703 332941 414370 402900 338210 339600 293466
14877.4 211239 197152 213490 293359 239866 267853 286945 294413
14892.8 371508 373971 372727 449020 442308 371565 308009 264582
14908.3 296384 333830 394402 359183 333282 389420 365088 450616
14923.7 424550 286284 266481 291820 259335 373813 376948 319153
14939.1 334381 348394 257673 259878 295296 329003 353709 299410
14954.6 276133 267544 272996 313174 301038 285205 255182 253082
14970 298350 301705 341514 289060 254944 278541 264598 229139
14985.4 247836 276553 252913 244850 269237 286326 307406 285068
15000.9 260729 241901 230749 276734 362901 374892 336505 310288
15016.3 321092 291832 224191 206214 259186 297995 249283 230839
15031.7 215180 282867 371537 366321 356466 372901 388333 296100
15047.2 243201 250626 251244 317878 387333 453275 472081 366448
15062.6 280199 284196 217037 273113 234703 324321 359946 324164
15078 336419 314561 272865 260896 245654 256338 278106 293180
15093.5 284176 302140 252590 234743 291384 263891 254680 270948
15108.9 285648 317214 306978 292888 335718 366769 376912 310422
15124.3 234124 264715 277500 305241 270972 234950 230752 251208
15139.8 306327 289900 310755 376648 379943 309828 272443 335684
15155.2 321251 273198 314340 261949 300085 249706 254135 274915
15170.6 227940 239826 275596 331849 331124 326836 319536 290100
15186.1 219641 156616 241341 303742 293310 367162 273876 251911
15201.5 243181 162777 236025 304174 242034 202916 285557 270644
15216.9 340510 396055 386710 375860 307556 249447 207576 275186
15232.4 347299 293913 259038 234115 190044 227406 284301 282211
15247.8 252782 275691 284797 300321 308897 373034 353020 309277
15263.2 303159 323638 240581 197933 261753 283827 312491 327014
15278.7 352060 347786 265500 265339 308456 349234 284722 324502
15294.1 293427 310096 276684 271437 288811 333220 314847 332081
15309.5 267121 257997 232869 252332 383593 433142 356592 296622
15325 331225 336120 318568 318662 291885 289149 182826 272036
15340.4 314417 263016 252333 237031 209616 233323 322452 316357
15355.8 248312 263323 288036 320485 361607 307586 279954 300502
15371.3 250890 288171 280344 218969 227614 279293 275999 267544
15386.7 287187 326056 317932 232266 258674 277069 302572 330678
15402.1 315184 320345 265532 217168 249255 224212 238480 260810
15417.6 190827 146104 215612 238392 232928 271854 254857 236642
15433 239555 299552 294755 299814 292874 330172 298461 198075
15448.4 184155 242992 251981 221951 241432 215553 233176 232494
15463.9 281727 247694 309247 327461 352164 372660 321081 316744
15479.3 351910 289764 263718 232932 254754 369246 414299 298710
15494.7 212036 203400 218588 267646 318124 317680 299270 244348
15510.2 244313 303552 335200 289958 268450 270163 267959 276475
15525.6 255109 282029 303905 356993 383415 354019 289368 328259
15541 322300 255370 263568 254106 279526 321421 283206 319909
15556.5 354940 323532 304934 244832 225592 270233 249272 197079
15571.9 190956 146564 191835 243096 246736 294888 345783 358742
15587.3 293040 238686 255466 252487 215507 285501 355221 355819
15602.8 272454 215957 243453 229792 260596 281116 307565 318868
15618.2 277522 246136 265839 253387 250991 269088 294175 362337
15633.6 342577 297134 323126 323263 382737 385164 300562 240100
15649.1 277308 361662 290847 344222 336076 287425 266622 236755
15664.5 206985 226182 329410 397145 345783 310819 281808 265917
15679.9 192041 235288 215878 176270 200709 252720 306863 339101
15695.3 349682 309991 284513 316606 264540 251451 276148 277476
15710.8 224018 177262 235847 331337 370581 338389 321550 317749
15726.2 331967 350388 254122 261301 264755 298594 339377 316086
15741.6 303426 307613 232513 193767 247844 313529 290029 262837
15757.1 223064 230231 272478 314792 251979 274873 318628 384902
15772.5 368984 297433 207607 226863 292216 370736 292334 241642
15787.9 257798 262852 239249 271092 287426 307280 364349 472099
##END=
