##TITLE=0001
##JCAMP-DX=4.24
##DATATYPE=INFRARED SPECTRUM
##$NOTE=15.05.2024 12:14:39 4 ^0 x16 v:1 [Приставка: без приставки]
##$PAR1=2045
##$PAR2=2351
##$TIME1=61382
##$TIME2=61564
##$ITAB=-1,-1
##$NAK=16
##$RAZR=4
##$APO=1
##$REF=7901
##$DATIM=2122677006
##DATE=2024/05/15
##TIME=12:14
##XUNITS=1/CM
##YUNITS=TRANSMITTANCE
##XFACTOR=1
##YFACTOR=0.0241017
##FIRSTX=0
##LASTX=15801.451535575
##FIRSTY=48914.6835360372
##MAXX=15801.451535575
##MINX=0
##MAXY=1.29395e+007
##MINY=2931.3
##NPOINTS=8192
##XYDATA=(X++(Y..Y))
0 2029515 2785030 7717039 5005475 1310929 1162188 1129903 890552
15.433 893223 1003361 1071067 1168510 812778 727521 884202 772013
30.866 738054 798058 686108 735921 847915 697081 601392 615027
46.299 578969 596634 717899 636122 583180 569896 457439 472746
61.732 523883 510429 624949 647319 582790 577347 558421 491403
77.1649 512203 537420 546878 607660 607762 499074 524675 496393
92.5979 477672 574224 550700 444468 439728 427344 412592 433155
108.031 401038 387315 454464 520773 505411 474879 448688 422551
123.464 459268 479252 502701 523282 463742 467106 512374 465239
138.897 477230 555059 530331 445537 422191 407467 474655 502846
154.33 433769 417082 402543 366827 391438 454626 477825 458779
169.763 536869 653267 808266 735848 553032 458907 483454 422267
185.196 374524 412432 392195 434758 465492 423153 422757 465710
200.629 503900 495117 453644 428469 436792 448607 449428 461536
216.062 419351 353469 373193 451879 517600 489168 467352 534170
231.495 500662 409546 354654 327476 425755 520642 520403 434284
246.928 378071 399291 431499 427098 439984 490163 411453 375926
262.361 334602 414853 460110 468344 454302 460322 452032 475568
277.794 469866 444845 488944 526455 507362 456910 428206 356740
293.227 375912 486371 526876 521832 452273 536441 595334 591075
308.66 514645 492690 506911 413377 388948 452857 490345 495120
324.093 422200 497303 527271 431489 452319 528161 514716 428235
339.526 428398 497930 549855 485851 403513 401976 456129 491422
354.959 524161 519817 564172 566510 535554 514851 461741 473271
370.392 420329 436676 492750 528397 470730 398363 392607 441545
385.825 475854 458937 499475 541829 507041 525271 627620 652454
401.258 580524 506980 472013 468125 573885 604750 575440 604419
416.691 605539 612809 591609 579685 569491 644985 719177 706355
432.124 567800 479940 433979 584634 689782 735452 709972 697017
447.557 748349 776124 745285 607898 507184 630983 803033 917076
462.99 990333 1064557 1184888 1365497 1534931 1666966 1789915 1933899
478.423 2117343 2348630 2597808 2872008 3226470 3626855 4013588 4460133
493.856 5059407 5776265 6505775 7218468 8053848 9156761 10441371 11759290
509.289 13136793 14577074 15869040 16848498 17765908 19093134 20754722 22075086
524.722 22933148 24098150 25928152 27832317 29311234 30442750 31368524 32177649
540.155 33052635 34014872 34876877 35621440 36437522 37348289 38118709 38586157
555.588 38897124 39267607 39671804 40032900 40415222 40769361 41059659 41635332
571.021 42668975 43712058 44601398 45856601 47677660 49673303 51683001 53873929
586.454 56078632 57796620 59055365 60637572 62888323 65069154 66559931 67647631
601.887 68666730 69433613 69708397 69622291 69604471 69769229 69609275 69056460
617.32 69261902 71076591 73537078 75370246 76971788 79138155 81265306 82556753
632.753 83278552 83905617 84706077 85755016 86683723 87496274 88381182 88663426
648.186 88566156 89414187 90760230 92293895 95283722 98215653 100092622 104219525
663.619 105859229 93868925 77247146 79011521 97330843 109916760 111609041 112436508
679.052 114196844 114797290 116872963 120497966 123163049 125960614 130104517 134122571
694.485 137605424 141360144 145198797 148739170 151869532 154401515 156745104 159314730
709.917 161553026 163381814 165631003 167608242 167752296 167512588 169851979 173980865
725.35 176813013 178173921 179741904 181580337 183159223 184733844 186334525 187763498
740.783 189211910 190778168 192384676 194041896 195549411 196671325 197593491 198653657
756.216 200031755 201734638 203546158 205297310 207117972 209086019 211026106 212842355
771.649 214626864 216424263 218179130 219884113 221600409 223326084 225013868 226737665
787.082 228637301 230726707 232933976 235231237 237614770 240032769 242369266 244504706
802.515 246301311 247439461 247616586 247179502 247112855 248134702 250175780 252744946
817.948 255423654 258077068 260772310 263473609 266011393 268405300 270827666 273246675
833.381 275478453 277356826 278559184 278815525 278531421 278481618 278808862 279128787
848.814 279509061 280521416 282439839 284982310 287762724 290626130 293506177 296232931
864.247 298677131 300819264 302564591 303993717 305762242 308542567 312222437 316216928
879.68 320161027 323923231 327409783 330553253 333279791 335560835 337537657 339440495
895.113 341396333 343387723 345379786 347389961 349354357 351138760 352829133 354670661
910.546 356663557 358648698 360647107 362681977 364579537 366279761 367986374 369844862
925.979 371783956 373690493 375490590 377116864 378616266 380227905 382145697 384265530
941.412 386355187 388349096 390289134 392184416 394099435 396117302 398144079 400030565
956.845 401747333 403146073 403972854 404481663 405471363 407372200 409833060 412356467
972.278 414776935 417050411 419107154 421035219 423024874 425035166 426858378 428516727
987.711 430164795 431721816 433100907 434486082 435880945 436883393 437330650 437632392
1003.14 438235074 439190286 440257662 441164292 441865357 442570223 443369555 444064865
1018.58 444546752 444978879 445434345 445774857 446016620 446356368 446787885 447162203
1034.01 447558474 448154545 448907379 449683091 450461164 451285727 452240851 453406981
1049.44 454737853 456146271 457624801 459134589 460596456 462001923 463303590 464381372
1064.88 465270348 466119723 466899525 467461628 467823693 468151894 468566491 469104990
1080.31 469764273 470501451 471259084 471964219 472497112 472862686 473378624 474356369
1095.74 475650303 476875342 477892650 478758552 479455865 479941439 480247343 480404736
1111.18 480453210 480584676 481056317 481864494 482757858 483649688 484678606 485872391
1126.61 487173056 488654045 490280777 491735810 492852252 493849793 494896979 495853755
1142.04 496562203 497026032 497312191 497510979 497716895 498013295 498523311 499305375
1157.47 500249792 501294840 502510456 503871402 505315765 506860317 508279071 509161111
1172.91 509619987 510247046 511162210 511909455 512261969 512245547 511656898 510418017
1188.34 508843104 506979970 504441691 500984053 496697002 492076487 487954432 484873600
1203.77 483054029 482652647 483178990 483709729 483577726 481801191 478605655 477846546
1219.21 482306381 487761911 488550432 485669481 483311974 482608224 483101582 485191137
1234.64 488830673 493110612 497366825 501251719 504515068 507348029 510173939 512743103
1250.07 514359541 515334843 516577957 517658702 517723000 517714590 518876570 520225518
1265.51 519720198 516850926 513490991 512831289 516359418 521696142 525321992 526890866
1280.94 528387903 529939301 529760001 528190020 528160710 530672293 533233211 533965881
1296.37 533981387 534815628 536198651 536870911 536510319 536222644 535956209 533472519
1311.8 528848422 525017638 521514885 516790019 515331019 520264632 525801299 527631948
1327.24 528212616 528007860 526216002 523643746 514815543 495337345 479223691 483850463
1342.67 502072951 512604030 509870177 505017577 503721392 500437183 495130009 493784233
1358.1 488051851 466579649 445943844 448843938 465419052 474445632 471473263 457447061
1373.54 441618002 444118184 462735880 476808531 484584911 485492163 467920976 450642419
1388.97 460744595 473423912 456184784 428728878 421283855 435091654 456896549 468779317
1404.4 467979202 474279201 487874846 490927838 489041003 481233939 444538089 399246216
1419.83 394826547 426714734 456573170 469942579 467366766 459607776 459045804 446961488
1435.27 413529914 403660761 441421618 480245996 484139815 468349477 450718718 442320246
1450.7 450649328 443415863 383014043 317742023 333478298 408209411 443098653 430518359
1466.13 440116914 462419524 431988284 370404029 357028496 401540408 450641021 474396471
1481.57 482598919 482297592 457161576 405465464 372961021 392859091 421029638 404031214
1497 371751281 384229229 423676144 412908720 333307497 266760933 288150559 359732011
1512.43 395369976 381764334 356214982 329376464 306014030 306522829 328736819 358149215
1527.87 391713435 406937759 387439270 370486179 369236787 332775863 266346823 249108274
1543.3 299039271 362839174 406102026 420221379 410844834 393588165 353669573 281167780
1558.73 240221660 289090629 380762972 430906244 420125884 395214483 402521344 421247304
1574.16 403292722 377535399 405420423 461662508 485682612 483960405 485568618 485440965
1589.6 477745413 470199010 463847986 459271497 459805065 458965612 451732644 447485376
1605.03 447902678 440449304 432742425 439602286 432701351 389223454 358725979 377081664
1620.46 396191923 385591766 379651346 392808320 410982639 426263314 411645927 356578922
1635.9 319953725 349486159 408144254 430131039 391211665 332573848 315659530 321580617
1651.33 286608871 250171470 300008675 394331110 424513054 396139193 388032531 402287548
1666.76 385069891 344085570 331935757 344589969 346217627 352100376 373747400 360627884
1682.2 300007352 264436226 293873993 345738544 375026091 370940179 337007688 289104384
1697.63 250983037 240270825 259978981 291370489 312217042 325822797 341911443 344459942
1713.06 314203066 265945491 239403319 257696016 300915221 329249376 331515469 325634644
1728.49 314042209 281829340 241066880 228099360 248192935 267147928 266748509 265068179
1743.93 271788761 268930117 251157008 242877793 258425343 280729326 290963585 289750294
1759.36 285633443 285619466 293181957 301229413 295411675 272222523 248614525 247709446
1774.79 270781047 292973373 297416201 293548447 292494640 294089530 296384461 290499534
1790.23 268531736 249730318 256926063 273886866 273795785 264382457 265540443 275310322
1805.66 280295172 274691473 264422467 260119029 261179104 257349759 249131363 243868023
1821.09 237735090 226152155 215259078 207487729 200633140 201092650 210599907 215964248
1836.53 212753883 209846173 204128987 188255848 175062776 178508328 189536235 194772179
1851.96 194784079 193653298 191588649 188742446 185916386 183726880 180248768 170854934
1867.39 158276190 154318697 162025514 170116104 171243968 169312136 167534829 164931526
1882.82 162227854 159791247 155340513 149964973 147954726 148682341 148181441 146876754
1898.26 146884437 146604079 144618548 142383006 139923682 136173206 133337521 133376141
1913.69 132784413 128310366 123347978 121738077 121571076 120683393 120387882 120679198
1929.12 119694154 117687878 115820353 114081051 112281799 109532294 105095865 101373361
1944.56 101012079 102393658 102720678 101826543 100431377 98774362 97180833 95734792
1959.99 94438581 93372944 91953824 89998536 88825589 89043322 89317433 88808461
1975.42 88290747 88488932 89319148 90329701 90993106 91176590 91006597 90241866
1990.86 89193456 89325910 90975269 92329831 92257188 91566678 90881159 89991299
2006.29 89058684 88531478 88452710 88382371 87705085 86564973 86005578 86380842
2021.72 86904325 87105117 87193974 87264708 87239932 87152177 87201463 87660771
2037.15 88401328 88976671 89478563 90316506 91336765 92345826 93775233 95815919
2052.59 97867051 99422901 100598120 101616138 102458316 103037200 103451197 104046682
2068.02 105072714 106317882 107433817 108450613 109585762 110813757 111974238 113063273
2083.45 114135553 115060243 115644307 115888010 115800549 115273736 114558589 114266937
2098.89 114544658 115017462 115505276 115968583 116233087 116359865 116609293 116938580
2114.32 117144724 117157077 116836048 115992019 114663632 113002175 111036266 108728629
2129.75 106097529 103280608 100556157 98174443 96134903 94281002 92577691 91108372
2145.19 89877055 88779349 87669845 86410133 84952897 83367750 81883683 80967249
2160.62 80991365 81757615 82745764 83656545 84362959 84744336 84853857 84924193
2176.05 85120714 85419091 85689274 85889052 86122249 86459595 86864005 87310720
2191.48 87831958 88476236 89230815 89929251 90364261 90545969 90728935 91139042
2206.92 91713120 92222014 92636142 93092171 93568779 93983287 94430122 94997950
2222.35 95632655 96319392 97074231 97771638 98276876 98695016 99255157 100015033
2237.78 100902924 101894498 102889693 103714626 104418284 105133475 105762534 106299155
2253.22 107029089 108049431 109165714 110279653 111345612 112265544 113185678 114455566
2268.65 116178069 118201118 120474173 123044647 125859172 128925656 132413905 136243231
2284.08 139986135 143376304 146317762 148537056 149903140 150665556 150980348 150799636
2299.52 150178270 149074746 147075941 143721643 139089029 133997360 129451761 125797109
2314.95 122336089 117695376 111462390 105728884 103018520 102387288 100267374 95427320
2330.38 90502143 87955219 86590929 84146269 81402715 79852222 79261435 82851893
2345.81 95676191 110943112 112227466 95987386 75823908 62149551 54117654 49566602
2361.25 48567919 50210053 53719340 59472142 67470714 77822255 91197789 107372896
2376.68 125227442 143960959 162742503 179730760 192612662 200289600 203512447 203767858
2392.11 202312747 200129083 197760653 195298382 192824113 190398610 187911730 185465797
2407.55 183427097 181886137 180516057 179020867 177434049 175891459 174390421 172948506
2422.98 171636505 170400864 169240361 168279221 167424314 166471823 165490666 164625661
2438.41 163841589 163091478 162443275 162035144 161915948 161893347 161801744 161788973
2453.85 161976129 162142681 162048658 161755805 161438567 161083294 160570730 159956376
2469.28 159397680 158880711 158281036 157568596 156817646 156138336 155581112 155096989
2484.71 154651708 154243475 153836136 153432036 153051020 152643666 152251934 152018694
2500.14 151865059 151534593 151008118 150515318 150181602 149915582 149599941 149269500
2515.58 149064987 148992990 148849499 148532413 148243790 148154160 148139524 148049100
2531.01 147891235 147728371 147681363 147797619 147853594 147738671 147727041 147899541
2546.44 147951843 147871636 148006647 148421026 148861029 149172582 149337949 149420486
2561.88 149660404 150262746 151061382 151770815 152452475 153297470 154196310 154994566
2577.31 155851834 156937973 158093497 159088089 159995404 161103368 162542942 164191463
2592.74 165917980 167705959 169544979 171395233 173253312 175175394 177222134 179390036
2608.18 181697872 184272777 187139752 190112154 193075535 196096411 199259731 202677282
2623.61 206416641 210305281 214182530 218198417 222480271 226892146 231429024 236328738
2639.04 241584263 246879567 252111464 257461221 262937252 268331215 273590561 278829395
2654.47 284014078 288901796 293232043 296792629 299337641 300670546 300898728 300458448
2669.91 299828495 299246281 298618570 297752029 296702952 295644234 294520057 293288939
2685.34 292171937 291207530 290121372 288915711 287880937 286973261 285904533 284724288
2700.77 283690805 282788839 281832167 280768332 279622255 278436429 277303038 276195844
2716.21 274981511 273749342 272722578 271836112 270848471 269720123 268522554 267224719
2731.64 265821145 264448093 263214078 262062952 260901818 259735318 258589305 257423729
2747.07 256168663 254774911 253264410 251728223 250233538 248835261 247611828 246528996
2762.51 245473269 244469214 243542872 242541408 241415106 240312252 239208868 237912524
2777.94 236439952 234952320 233452380 231896530 230387066 228945369 227342577 225471502
2793.37 223615884 222023234 220535923 218965570 217463796 216241738 215258569 214364998
2808.8 213493936 212640549 211809848 210981020 210107131 209206716 208360226 207565214
2824.24 206765844 206001467 205292298 204480449 203458415 202406724 201483286 200426506
2839.67 198857472 196799332 194408113 191549408 188382885 185875614 184827159 184868079
2855.1 185109710 185140736 184915737 184386107 183610732 182752805 181877897 181035372
2870.54 180329490 179676651 178843068 177854565 176921302 175991603 174897405 173758430
2885.97 172772068 171865847 170857050 169704525 168478625 167210373 165821473 164279391
2901.4 162750457 161364254 159970278 158387428 156633959 154691919 152413870 149890671
2916.83 147571969 145836877 144703014 144038806 143805633 143961149 144253586 144339345
2932.27 144177481 144032135 143996072 143936012 143892201 143962387 143919275 143462057
2947.7 142627881 141650979 140653851 139621229 138592266 137754695 137193403 136715856
2963.13 136119806 135330125 134292778 133209701 132600901 132628069 132790264 132616140
2978.57 132116143 131392408 130403622 129306128 128515682 128169263 127920830 127525378
2994 127238255 127374737 127826071 128271054 128633322 129079189 129640324 130104637
3009.43 130314450 130252872 129831288 129055664 128301743 127848132 127447637 126962155
3024.87 126787571 127043883 127179072 126802614 126025307 124920198 123521563 122124728
3040.3 120940080 119848123 118748268 117659117 116543693 115460836 114599432 113910858
3055.73 113164779 112445045 111995341 111643631 111082781 110516176 110276194 110153197
3071.16 109812236 109394075 109110030 108809560 108406541 108120128 107938782 107510651
3086.6 106854783 106404067 106123800 105549098 104813621 104507560 104542195 104350279
3102.03 104013436 104045859 104359656 104428088 104180241 103995292 104051625 104179009
3117.46 104184829 104028276 103780660 103587221 103620064 103923397 104261408 104319570
3132.9 104219984 104511388 105347115 106142876 106439462 106490190 106630824 106849665
3148.33 107242732 108027447 109015495 109828405 110466619 111158173 112010485 113026585
3163.76 114131350 115237264 116406509 117742588 119163541 120437160 121452347 122436715
3179.2 123606387 124639280 125172813 125513703 126006331 126424179 126597636 126616966
3194.63 126376606 125923358 125737004 126033108 126483075 126716258 126632643 126436907
3210.06 126358230 126245790 125890938 125445793 124967071 124255276 123429150 122746197
3225.49 122021952 121077782 120202709 119534578 118735250 117700539 116838869 116357064
3240.93 115955899 115491173 115286126 115478691 115682027 115619270 115489499 115485343
3256.36 115592106 115910543 116522796 117210421 117866428 118747080 119888521 120882388
3271.79 121517447 122106110 123051053 124384839 125773255 126970025 128149048 129513569
3287.23 130883612 132104652 133380929 134782196 136005851 136935222 137888166 139156882
3302.66 140689349 142246130 143663167 144994020 146449794 148192037 150240650 152525660
3318.09 154884007 157084417 158985349 160542273 161632958 162145316 162183603 161843900
3333.53 161003989 159607474 157618365 154600557 150218889 145086300 140317254 136649329
3348.96 134322836 132971565 131766962 130423305 129331461 128443350 127252794 125713952
3364.39 124125951 122671580 121553895 120924269 120757493 121118420 122089304 123512682
3379.82 125186996 127054745 129261665 132138527 135633442 139100653 142250865 145490545
3395.26 148998541 152499656 155766241 158470075 160153167 160806791 160770358 160093388
3410.69 158575784 156099661 152474946 147346128 140902445 134567486 129976557 127140985
3426.12 124796547 122285749 119718334 117147758 114840856 113172131 111840158 110424226
3441.56 108983426 107235826 104862931 102788396 101967632 101581068 100488875 99052875
3456.99 97895043 96680232 95236464 94142437 93693569 93601553 93555090 93248937
3472.42 92565615 91991286 91810839 91346115 90268279 89555454 89811074 90209053
3487.86 90221362 90406683 90741628 90505497 90047685 90048240 89614382 88074137
3503.29 87093289 87879299 88838530 88795397 89056619 90300726 91282308 91338085
3518.72 90747396 89423735 87671977 86441046 86021544 86456072 88117932 90189970
3534.15 90908083 90340768 90259881 90776196 89729212 86484028 84026725 84747526
3549.59 86476905 86670290 86994316 88876497 89815091 88485016 86477432 82996830
3565.02 76794857 72708191 76136120 83530765 87729529 88117709 87825199 87481110
3580.45 87020047 86037676 81704895 74772390 72405157 76573878 79887769 78910349
3595.89 78076462 78988863 79646208 80685468 81831818 79859485 75442118 72831995
3611.32 72716162 73041838 72865775 71534591 70279117 73208224 79209670 79286712
3626.75 70546297 63472876 66796054 75729881 82218857 85635319 87922442 88474597
3642.19 86841401 82278726 72645855 61747011 60088021 69312130 78015666 80591268
3657.62 83489278 89132580 92960939 93989757 91684014 83227152 73317069 69259090
3673.05 67609021 64611700 67192699 77974083 88215032 92288927 90508918 82594986
3688.48 73348765 72481563 80748861 89596184 93816192 93536934 90364777 88324730
3703.92 90370014 92217441 87590174 78970667 76202983 83502307 93269531 96388027
3719.35 93301320 89375557 86544005 85494871 87207517 88320451 83679789 74447821
3734.78 68303878 72125978 83131780 88176361 80744480 72477932 73380444 75407702
3750.22 73033433 77004068 90903636 101284109 102671078 104790652 110901559 114006120
3765.65 112399763 110543568 111413901 116843110 125086876 128472248 124239206 120205940
3781.08 121975264 125947608 128492927 131015176 134749712 136935378 134007026 127277089
3796.52 120458147 112983063 105602109 105008441 110938821 115422176 120572313 130969865
3811.95 135337053 125590192 113973835 109286842 106436535 106709549 115594319 126578472
3827.38 131069408 130372511 127671258 122591144 114869086 107173899 105426697 112527845
3842.81 123471495 133326830 140313836 137274803 118515287 96860188 94075264 112765357
3858.25 132761437 137215197 130509608 125563333 124732348 122667521 119475215 121328123
3873.68 130609472 140287665 141770125 136764800 132751787 131469660 132599859 137148313
3889.11 140679064 140203143 142683010 149030453 147598536 135927561 125414078 123279780
3904.55 130021068 144192877 158530866 165510561 165704933 161366243 154041265 150118310
3919.98 153000086 156391416 156656066 157930096 160119303 158644752 155845021 158054779
3935.41 164565966 168964467 167797596 163699151 161553811 162294548 162805495 162707314
3950.85 164910506 168885324 171249269 171638524 171531828 171255169 171554756 173043161
3966.28 174230495 174070331 173564054 173261694 172985385 173335653 174486678 175432738
3981.71 175786603 176126292 176470110 176312455 175804206 175525886 175616857 176018590
3997.14 176768097 177539626 177884484 177852796 177564497 177003603 176617774 176895168
4012.58 177502709 177814309 177770250 177735836 177871220 177885914 177664806 177687608
4028.01 178112783 178394724 178373191 178399447 178493425 178565291 178642108 178472873
4043.44 178072838 178077790 178610189 178989366 178929177 178804390 178881480 179078156
4058.88 179198011 179158458 179107463 179225699 179478473 179651551 179566501 179344698
4074.31 179305061 179422089 179371147 179213555 179300827 179577258 179732609 179781875
4089.74 179914657 180111270 180222103 180172051 180043424 180007996 180022949 179828389
4105.18 179515089 179566491 180043253 180449606 180570904 180631557 180695989 180682402
4120.61 180685813 180756037 180793933 180848711 180998676 181050723 180854730 180653325
4136.04 180724375 180959125 181089396 181097615 181146215 181266100 181367191 181435135
4151.47 181480122 181433181 181305705 181270819 181428966 181686521 181915933 182049413
4166.91 182068228 182018398 181937048 181815265 181742360 181850931 182049122 182111372
4182.34 181992509 181811220 181676309 181647702 181720767 181823109 181848567 181738332
4197.77 181617169 181644443 181692424 181599783 181559200 181730178 181917002 181973908
4213.21 181933488 181774691 181571295 181495548 181510634 181526984 181596354 181646953
4228.64 181543742 181399107 181348478 181308602 181202116 181071090 180977596 180982457
4244.07 181073097 181139220 181132925 181091411 181025277 180945558 180880954 180822875
4259.5 180767842 180724233 180651462 180540116 180452759 180374176 180227704 180073919
4274.94 180047660 180130290 180187905 180164258 180106650 180046977 179907569 179594569
4290.37 179241901 179147699 179315771 179390796 179201172 178940740 178751903 178604981
4305.8 178523378 178501945 178395751 178173423 177992641 177887918 177707065 177440530
4321.24 177314475 177411579 177458108 177227463 176882347 176654079 176537369 176475168
4336.67 176441228 176349291 176188060 176025718 175800658 175452640 175113486 174893788
4352.1 174765184 174700943 174624835 174392530 174044449 173788674 173651657 173470660
4367.54 173215081 172997442 172831800 172664652 172517716 172367262 172094305 171708287
4382.97 171370060 171167545 171063763 170966284 170775280 170479406 170143188 169804727
4398.4 169513777 169303740 169078738 168794419 168581524 168428328 168140425 167767199
4413.83 167522916 167312830 166930822 166525192 166313189 166158160 165866709 165514409
4429.27 165220321 164974658 164723536 164373675 163906864 163520940 163312438 163054311
4444.7 162653371 162352414 162193834 161882920 161344875 160843756 160519265 160275649
4460.13 160054275 159837582 159515368 159053551 158604234 158219813 157769769 157288697
4475.57 156962226 156743615 156476077 156193844 155880345 155390581 154824015 154365476
4491 153920493 153480279 153270360 153186091 152879913 152379260 151888568 151393849
4506.43 150902140 150491797 150069587 149553241 149061169 148690025 148392715 148092765
4521.87 147756687 147388667 146955296 146391278 145780686 145334694 145083388 144818037
4537.3 144398376 143914877 143487271 143069008 142556263 141968734 141431399 141034082
4552.73 140701997 140266626 139750103 139323748 138931489 138399859 137847223 137488694
4568.16 137225358 136797178 136164801 135543604 135079171 134645676 134150175 133738385
4583.6 133434227 133058350 132614371 132207625 131754867 131186290 130580494 129990054
4599.03 129459617 129048014 128690797 128281628 127808046 127272486 126683913 126135733
4614.46 125731841 125465681 125191621 124732987 124092925 123454584 122917012 122424093
4629.9 121950069 121525897 121115633 120646455 120119819 119596639 119102214 118586821
4645.33 118018567 117501233 117144636 116835433 116398680 115900619 115472011 115026514
4660.76 114452841 113830920 113281171 112823299 112397449 111917424 111389583 110913497
4676.2 110479815 110003174 109560279 109237948 108847249 108202070 107477411 106901607
4691.63 106424499 106005418 105749664 105533855 105061634 104389515 103836999 103420446
4707.06 102891085 102233172 101685322 101327825 100999043 100598752 100168289 99704292
4722.49 99172364 98618193 98080127 97559415 97107253 96724942 96294974 95794106
4737.93 95356572 95005895 94572586 93980058 93400305 92998472 92686186 92282909
4753.36 91782124 91303632 90895809 90499575 90049303 89539779 88982422 88376544
4768.79 87807821 87435112 87243442 86990426 86528791 85981878 85484889 84973226
4784.23 84390942 83884694 83552344 83234456 82814020 82420370 82112305 81747649
4799.66 81327337 81042419 80877501 80556409 79958999 79288616 78741908 78269552
4815.09 77806450 77465852 77278340 77038885 76635328 76186439 75756680 75320896
4830.53 74953757 74704367 74442680 74029552 73484853 72971459 72638337 72408865
4845.96 72109346 71794627 71561283 71237659 70708187 70176111 69780908 69408920
4861.39 69003373 68639261 68319443 68001515 67722430 67485553 67168882 66743234
4876.82 66387583 66169327 65880668 65402438 64903964 64529103 64200285 63843227
4892.26 63567034 63470727 63398080 63111816 62635650 62173782 61824300 61562196
4907.69 61296432 60889666 60338238 59847939 59582195 59472587 59348356 59144236
4923.12 58893674 58565235 58116797 57691896 57440055 57245302 56969232 56692175
4938.56 56463694 56195959 55869885 55502986 55089601 54744333 54531456 54245553
4953.99 53800278 53453967 53312822 53188265 53008265 52769643 52386310 52002689
4969.42 51866010 51817764 51573914 51206036 50861134 50530766 50253593 50047510
4984.86 49801035 49516987 49334993 49256475 49148105 48929933 48576966 48086793
5000.29 47600417 47399325 47543566 47667153 47449838 47059672 46793736 46624115
5015.72 46396567 46125673 45896536 45704110 45457698 45093495 44699879 44428792
5031.15 44269081 44105304 43937960 43804515 43630571 43380240 43152824 42988524
5046.59 42795075 42529199 42270427 42083949 41919444 41705692 41478771 41289889
5062.02 41088622 40865411 40693446 40510664 40219498 39979406 39949787 39941094
5077.45 39744143 39457477 39193992 38885330 38516216 38187463 37964564 37857970
5092.89 37795342 37628896 37371704 37190448 37050202 36793544 36515010 36364798
5108.32 36217763 35924130 35551943 35203827 34895834 34634027 34455543 34370250
5123.75 34265772 34047505 33865249 33826974 33692163 33328843 33009482 32869090
5139.19 32717758 32521509 32394510 32236732 31927912 31623580 31493450 31417478
5154.62 31172632 30764449 30391346 30152055 30001311 29934867 29917499 29748454
5170.05 29380908 29125012 29130308 29095593 28836459 28562557 28395230 28223786
5185.48 28053382 28004651 28071558 28100205 27895986 27435957 27022265 26928882
5200.92 26904794 26425591 25501688 24847654 25031544 25771580 26338926 26360420
5216.35 26020326 25680790 25393296 24921480 24364137 24188077 24399023 24496711
5231.78 24357885 24326652 24538652 24754142 24685691 24257826 23593593 22844842
5247.22 22294580 22306325 22651444 22658288 22426748 22562321 22743929 22269553
5262.65 21537044 21384272 21758173 22127909 22325872 22413622 22388284 22225756
5278.08 21926554 21543714 21219836 21076260 21028468 20874692 20648868 20596597
5293.52 20694229 20625159 20323706 20093732 20114869 20138126 19833881 19346801
5308.95 19141164 19279835 19405790 19352776 19204405 19035234 18919591 18805818
5324.38 18481141 17981769 17636815 17580808 17565297 17244443 16679478 16414453
5339.81 16566528 16455486 15891430 15683704 16145162 16482918 16155068 15653691
5355.25 15708041 16340792 16874093 16804326 16369904 16007183 15797633 15724319
5370.68 15763873 15644468 15217147 14879827 15002873 15268592 15129396 14639602
5386.11 14368041 14566384 14808957 14634067 14223331 14056138 14180190 14304640
5401.55 14314349 14245825 14044484 13660442 13191022 12812449 12660257 12762822
5416.98 13048071 13380359 13566206 13433393 13010285 12553293 12270880 12090138
5432.41 11910717 11893319 12061413 12035475 11744550 11649540 11776295 11673519
5447.85 11492297 11703680 12015192 11913442 11596354 11400399 11265326 11186489
5463.28 11213198 11137694 10915719 10794191 10712534 10436748 10175871 10242845
5478.71 10513019 10725159 10770189 10571508 10183523 9860208 9744671 9730484
5494.14 9693745 9661121 9719460 9824744 9816878 9656985 9458578 9292683
5509.58 9173921 9140768 9198149 9286178 9315513 9202153 8980869 8803742
5525.01 8697889 8549840 8398833 8377521 8375284 8214094 8019981 7948901
5540.44 7859811 7682655 7626527 7721178 7704107 7489676 7273311 7191784
5555.88 7177641 7100354 6962541 6911370 6985115 7018355 6918874 6779887
5571.31 6644635 6475456 6346216 6310955 6212647 6009779 5970940 6148413
5586.74 6201779 6039569 5916436 5840655 5660755 5522714 5588038 5664385
5602.17 5518866 5245182 5140180 5293105 5409871 5265389 5099849 5122319
5617.61 5081696 4849650 4747594 4865658 4875743 4733686 4713610 4781409
5633.04 4701062 4539783 4512018 4598325 4599537 4408008 4170076 4105688
5648.47 4163878 4163421 4135922 4116755 3969482 3746351 3686231 3754659
5663.91 3730640 3632169 3634712 3745176 3787985 3627176 3341297 3148854
5679.34 3144901 3217749 3259995 3319387 3449057 3528819 3417304 3212536
5694.77 3118428 3118091 3073443 3033414 3086651 3104569 3011345 2961683
5710.21 2932589 2720876 2503089 2601483 2796505 2730266 2588029 2650728
5725.64 2772815 2757875 2671115 2619494 2586956 2492810 2348389 2310338
5741.07 2413046 2457896 2383106 2363786 2432379 2432585 2324094 2214291
5756.5 2179131 2165143 2045838 1836761 1725881 1791746 1915842 1947204
5771.94 1803279 1608609 1620659 1782838 1810469 1744298 1735237 1660309
5787.37 1446110 1399097 1486538 1517370 1489612 1435818 1396011 1480373
5802.8 1580628 1515739 1442432 1494613 1477302 1355283 1345648 1433491
5818.24 1455639 1452036 1475982 1423778 1301983 1287495 1331538 1354716
5833.67 1312510 1336443 1380706 1284603 1140010 1082044 1109957 1146732
5849.1 1126999 1060027 1045277 1098340 1227721 1267683 1115550 875006
5864.54 705404 726971 904419 1041527 1025057 934276 863073 769458
5879.97 752648 777681 872600 937696 986424 861217 654220 564674
5895.4 799120 1049383 1045333 835373 664812 703233 693151 668524
5910.83 526679 461861 564867 690726 742787 728350 710177 577564
5926.27 573351 685703 653002 649757 639771 592224 448727 508280
5941.7 605699 625017 695208 626039 520318 565401 629936 587589
5957.13 570225 532571 507858 571489 555953 422101 368817 451732
5972.57 561079 495298 498617 445719 370381 447504 657079 585414
5988 561763 592986 511389 501555 524139 475932 411890 448898
6003.43 405166 515229 567894 441529 269206 290415 301595 419049
6018.87 453115 342082 312165 317830 498818 587533 516864 503095
6034.3 421400 359824 345023 412815 521300 624070 604936 571957
6049.73 396624 285281 374655 458607 542337 540976 465359 371675
6065.16 368887 397123 404145 447573 452295 431189 363507 466524
6080.6 491054 496634 486280 418995 476090 390607 443408 480674
6096.03 350106 440068 550877 570938 645749 587743 443311 393528
6111.46 409167 389301 497504 545259 530166 571656 588834 540280
6126.9 469255 465024 547820 514936 398600 418736 447666 419342
6142.33 416796 566794 580702 448861 306599 367504 401595 400940
6157.76 473431 475403 355962 280370 404057 465432 460807 475922
6173.2 451206 431155 493463 508798 467523 444906 497282 399166
6188.63 519986 502653 387282 353843 553332 615365 618371 454903
6204.06 563348 553324 546531 537003 484810 360892 350589 453770
6219.49 528329 508977 427809 475015 476832 451577 577378 642671
6234.93 530166 444822 283249 310566 294674 282471 441961 530709
6250.36 517702 587234 589394 539178 475801 448833 525782 553135
6265.79 491342 493602 552778 515355 545587 570703 500004 377381
6281.23 329046 280860 280932 411412 432725 392152 386135 429274
6296.66 497593 508091 602136 644068 616731 545256 358486 288492
6312.09 299303 284557 294753 302006 392653 618153 697064 576014
6327.53 354758 332495 432171 534726 555347 585893 502451 357294
6342.96 319804 342070 369234 448171 424173 455848 465228 497368
6358.39 505556 453918 476117 443762 419422 387198 332348 344085
6373.82 455995 400467 383030 352351 367805 394201 505086 612115
6389.26 753155 839059 747786 603283 610778 639575 592993 589979
6404.69 555768 492570 413372 333209 435954 438723 496616 512307
6420.12 444503 458974 518486 546826 517397 522238 545547 569317
6435.56 775363 766680 734408 594717 427496 336411 303166 445049
6450.99 514713 631784 466504 390046 385291 393281 478618 512462
6466.42 483455 468401 653064 611028 428256 457721 538325 517810
6481.86 518202 521861 401162 500647 553480 459279 335371 279842
6497.29 302470 390563 308568 373695 374419 326629 404058 427705
6512.72 494449 478500 391968 353294 362316 421495 468315 567397
6528.15 615582 473943 321315 346449 404032 422339 568478 697918
6543.59 704200 571553 431048 463600 453215 328696 556861 642144
6559.02 654627 543631 556137 403913 474806 382026 344323 312613
6574.45 374971 491969 569586 498949 509902 372874 417438 368343
6589.89 332372 374999 413040 450730 415847 237790 303556 435188
6605.32 564735 535845 543613 490929 421825 436676 460573 500001
6620.75 539109 566577 536194 434105 468602 532350 575909 648675
6636.19 627207 542507 602239 632322 351869 265470 407210 430020
6651.62 463621 523157 480292 567639 601534 568341 462888 359699
6667.05 353219 438149 485003 632043 625408 529962 445033 408612
6682.48 375870 441677 445117 319348 321067 372900 312077 369158
6697.92 445711 451252 486806 465190 477685 433006 441842 465026
6713.35 453845 339144 412930 560345 591243 444766 318162 408917
6728.78 497621 488370 461433 439696 381363 440026 458552 419159
6744.22 310412 428130 474634 513363 453307 434538 486576 488262
6759.65 549177 487451 492541 491088 433420 365872 402203 444786
6775.08 437956 447024 470316 429488 448460 516705 549164 624274
6790.52 635124 525106 451769 409067 342222 339805 365559 459969
6805.95 405942 429074 552035 428650 389761 417922 501478 481090
6821.38 399246 344090 321176 397932 490993 471303 491834 401647
6836.81 341360 412261 527070 577851 553799 513314 452585 373668
6852.25 306428 384492 411369 549204 707747 570844 421111 418497
6867.68 355225 470765 339702 291720 327465 492940 486941 519682
6883.11 511675 403975 390284 351829 298655 460933 481663 498034
6898.55 476710 459478 438014 416519 426265 383839 319521 450437
6913.98 560299 489775 388650 439187 368837 372910 410086 478688
6929.41 575445 506259 386154 331588 416989 478910 516898 530590
6944.85 473012 372736 408338 444774 398362 328921 446774 445009
6960.28 427210 388478 428379 372789 435599 407128 367499 366504
6975.71 374178 435585 534508 618278 545252 399152 316478 354590
6991.14 486993 447700 351466 340589 328245 433863 504738 440317
7006.58 397128 392077 453855 496354 487035 466902 430801 378293
7022.01 248645 249949 268472 434188 455700 481521 424285 491599
7037.44 455957 412733 364342 445421 403254 411182 392469 474180
7052.88 474561 524988 535268 410949 328868 375866 426186 454421
7068.31 503869 600662 583940 507367 402636 304805 241239 368215
7083.74 519237 554462 483270 562677 489341 389930 408820 441290
7099.17 394978 396377 395727 446556 379557 366267 432251 458772
7114.61 516656 542864 572767 471748 444925 480929 511336 508811
7130.04 447403 594178 673731 550731 429621 410871 382027 302874
7145.47 285416 383647 452868 628976 679269 626842 553006 431886
7160.91 284687 330869 311230 346647 405537 423795 367648 380221
7176.34 339914 376674 442566 417965 385132 409026 398497 435281
7191.77 496190 571453 529471 570635 532063 477993 376425 368943
7207.21 452236 331735 321649 324482 474826 600853 586779 507995
7222.64 432182 379128 298973 357145 445359 558690 527866 397903
7238.07 344837 365986 506207 531848 525779 447979 554953 538148
7253.5 502401 488921 438958 451756 505607 465778 440073 329668
7268.94 349498 420066 378104 325177 413860 491625 471437 398531
7284.37 303030 288136 349877 438507 496668 488448 407880 448482
7299.8 393973 353758 422313 436783 479516 391138 305991 411398
7315.24 498758 495238 457948 357424 346006 426362 443515 444268
7330.67 455101 469820 426704 454409 468075 365470 452783 451478
7346.1 412214 280825 258282 399003 438673 360623 432322 546943
7361.54 552193 485438 374575 266702 311826 359084 338769 316891
7376.97 363492 422539 410274 433826 414903 404411 396590 372466
7392.4 288719 314340 407169 523936 516187 465298 433470 448945
7407.83 300639 258664 393039 381046 389656 286747 332658 390467
7423.27 399456 420123 378587 375466 407836 329826 322909 369006
7438.7 509633 516416 478438 497289 395962 383560 394372 381421
7454.13 351989 320348 368654 347248 395171 483005 476341 429109
7469.57 364448 331392 357312 352488 325337 303559 294947 303953
7485 394909 458716 487417 524871 452605 525637 574339 557197
7500.43 445204 425274 518333 525274 492353 433007 408342 465701
7515.87 504189 517788 480561 474168 509775 425592 385633 517826
7531.3 577619 507090 458740 453843 559000 465467 348556 339869
7546.73 350609 472937 515387 530463 532956 647090 783151 604085
7562.16 362005 455136 436568 472721 529548 445139 320376 334580
7577.6 405722 427022 522255 545190 488929 465047 393493 555289
7593.03 560414 473540 287541 291281 432644 417262 413519 361922
7608.46 375071 340309 324429 440107 436111 415510 462273 460828
7623.9 426277 380044 335285 378592 519942 644188 549204 482603
7639.33 525005 475588 360244 442721 465976 505808 479368 469391
7654.76 477887 488569 483394 457202 405363 386664 401470 391155
7670.2 360152 302395 373434 416881 343929 389735 453192 633398
7685.63 600782 415213 325702 305719 336536 442824 492444 478755
7701.06 480943 609725 609038 435610 301580 293527 338767 434670
7716.49 462617 460458 488874 421038 406299 486878 495669 417221
7731.93 467969 527034 405224 365846 306874 323931 404926 460761
7747.36 495523 370391 382592 314301 387571 441629 343469 322773
7762.79 423905 527019 549944 607519 599236 468629 312129 312098
7778.23 342804 318159 304589 432868 522261 485342 463802 466587
7793.66 432868 370686 299316 253324 344443 354005 412795 389123
7809.09 429267 522724 508234 449411 462346 400232 331090 331128
7824.53 298798 322430 368435 356562 451454 486997 432755 417879
7839.96 381361 308932 250045 265820 364958 442462 494900 479959
7855.39 485643 463483 505146 492984 393161 370876 402339 286969
7870.82 285877 312292 504992 641118 539376 390932 429378 442601
7886.26 383481 453078 458606 378558 343847 446493 523105 506862
7901.69 589402 552791 435998 419150 453910 392434 252160 228045
7917.12 346638 395087 364921 397657 538359 714480 703095 628355
7932.56 506119 370656 373845 375446 487537 553753 419841 435967
7947.99 509572 515043 397723 361753 305285 348219 383542 291356
7963.42 351682 512499 581911 557318 510487 487300 389601 422315
7978.86 424208 430062 360722 461081 453455 422811 330268 315322
7994.29 378190 484657 451018 449637 453517 331635 360979 375726
8009.72 358948 389381 408397 448751 448312 365556 321951 292650
8025.15 305782 492056 581088 564907 519807 516981 470925 406816
8040.59 339387 353157 375476 422798 474031 436082 362465 399243
8056.02 390701 357180 436090 425297 404061 435158 513062 423794
8071.45 525800 542845 578633 671191 671910 591429 484707 440574
8086.89 320531 405275 345664 452072 447561 466079 466952 576714
8102.32 582788 559164 533253 377023 221040 288408 385942 380183
8117.75 388340 370925 386274 464508 507367 515302 473724 478522
8133.19 474453 463408 332679 381010 414517 430409 416768 363977
8148.62 472093 582686 623901 576976 552685 595172 484574 410351
8164.05 370069 385766 286541 341972 460831 465498 374182 328333
8179.48 320622 390740 482184 421710 319959 354921 418305 372251
8194.92 297380 406528 518448 633132 528029 593104 536055 563423
8210.35 557380 461247 444665 468067 369999 408666 488278 433580
8225.78 370997 461056 433475 414189 478249 574285 610557 465433
8241.22 440606 484020 473989 500781 688426 706292 524808 420804
8256.65 471976 438481 349647 406740 439717 417719 351912 389094
8272.08 373171 405453 416149 404348 416221 416037 426832 457290
8287.52 473024 341942 409799 490952 406267 317279 492269 552632
8302.95 588606 605134 576105 488709 423054 450728 421489 428275
8318.38 437480 365064 416168 442762 544297 639889 555933 339027
8333.81 384881 486819 485184 491120 563559 543028 514502 456732
8349.25 392872 325971 437798 446365 299719 343091 448496 435599
8364.68 395053 441846 472662 534269 483485 555438 449249 511729
8380.11 493070 431800 555579 545199 485907 464230 495678 476671
8395.55 428305 476440 493016 397846 432379 471808 386432 373007
8410.98 409749 406297 421398 473784 588541 606582 481310 331001
8426.41 311544 358091 497713 600486 511750 353641 380334 415963
8441.84 300701 360042 360161 430395 424231 426492 452243 373368
8457.28 294525 249522 263882 264892 262582 409513 446853 351717
8472.71 438534 502949 412443 403174 349301 363940 335724 419536
8488.14 460374 371037 367891 398147 337400 344503 381374 441971
8503.58 423809 448230 423392 419956 414569 437703 503254 510880
8519.01 516418 396895 284273 450968 470649 397705 356562 432914
8534.44 345920 293055 279218 300831 377643 434554 418100 353949
8549.88 367985 401827 411794 450748 431815 465575 465256 454236
8565.31 414450 456502 497997 421518 416216 450589 467513 422661
8580.74 467198 298582 362477 431173 401039 381623 411892 406234
8596.17 410211 367771 416569 409954 389228 350069 359271 417490
8611.61 450749 452019 390446 388280 384386 356961 369920 417252
8627.04 377244 398289 373686 422638 409995 293203 323491 452124
8642.47 518715 523538 532846 427997 388518 368407 360116 379061
8657.91 357079 343337 306531 390766 410504 310392 335858 416681
8673.34 443451 487942 488681 369189 236407 220101 276954 344769
8688.77 299989 394063 461278 403117 423653 426290 362283 353593
8704.21 422418 451116 472596 451037 464502 361428 302251 315848
8719.64 364653 429131 469535 401112 365465 334532 343939 341314
8735.07 426082 422423 391707 350015 275158 324579 478676 567912
8750.5 445104 249669 331071 344571 301302 333229 329835 364286
8765.94 408630 534873 583383 400928 386144 421612 450014 354405
8781.37 369779 520477 569548 521664 420823 340896 300897 307995
8796.8 436094 498992 397331 293562 304549 321156 329228 345702
8812.24 374457 387016 353829 344913 304136 330269 356342 350241
8827.67 295532 360969 414145 493966 363361 279642 361483 375449
8843.1 358262 428737 358082 314950 446286 467927 458621 475351
8858.54 449544 420322 313573 312155 335467 405828 501893 502575
8873.97 283702 251231 329255 393751 388863 368410 404790 428688
8889.4 411697 428192 357066 372221 486926 492582 391847 413422
8904.83 461748 473100 402432 394878 454801 479289 426082 372356
8920.27 424598 424172 283655 342000 466849 400684 387510 397748
8935.7 331723 334547 296622 324309 371335 440114 541865 490861
8951.13 412116 305198 323798 445212 479656 417624 447389 354192
8966.57 368727 372580 353366 330869 313845 319979 351353 363540
8982 374380 413124 437969 427414 361005 402716 381154 328744
8997.43 370931 391200 346673 370418 360774 389346 373865 368026
9012.87 391019 441505 471757 482168 456139 473969 419589 368120
9028.3 337448 328802 364840 354951 249652 349404 496894 518251
9043.73 468467 489383 539102 646346 585813 348672 311636 277864
9059.16 258910 246063 284450 425500 338488 295227 292096 354914
9074.6 277590 334034 259386 326421 427509 420947 360042 311614
9090.03 303861 342809 436223 404851 377126 419414 381338 363730
9105.46 401294 459382 400187 335175 303927 378747 439991 414517
9120.9 323311 311277 418518 466314 445411 467327 412044 362757
9136.33 370062 487652 478979 364364 377722 421588 317008 458360
9151.76 582741 485441 410944 399689 381450 413709 471219 444862
9167.2 468062 423803 418743 404290 428087 452768 425069 371299
9182.63 335740 361774 300719 251479 300713 319762 452388 444608
9198.06 457817 450165 327959 344574 290285 296137 334857 361462
9213.49 376632 361841 335735 382978 449725 544225 465174 301219
9228.93 215643 359229 425841 383195 392054 402282 457297 486630
9244.36 408416 306622 286741 351959 410667 461827 348991 335252
9259.79 376639 418246 466268 324200 406114 492668 416506 358149
9275.23 482526 529395 443115 367683 450272 394588 315715 445851
9290.66 480847 409136 362002 384510 453064 468890 538318 519685
9306.09 437684 366732 299434 233651 249602 328642 396904 520069
9321.53 482128 433104 371564 361660 430100 453645 388368 409489
9336.96 448436 380239 310830 320891 342511 325032 256522 248075
9352.39 347449 493952 501802 409969 229749 345626 422196 437481
9367.82 412666 306700 276325 227930 238024 247952 242585 283046
9383.26 342510 491973 460117 307462 201748 156802 241286 271143
9398.69 325967 305490 370560 399774 345458 418074 410642 276197
9414.12 336577 346570 428121 458781 511358 405933 411527 361439
9429.56 349703 442232 434793 348033 350221 309807 314036 381201
9444.99 394852 365928 381116 384485 432769 446542 404582 372380
9460.42 284281 285043 288618 337252 343758 362764 422023 374088
9475.86 371452 458708 491304 540524 547581 613593 609380 478938
9491.29 366053 383339 388879 440072 395066 286216 340940 321300
9506.72 378139 346971 495927 507786 395557 357672 358683 389231
9522.15 417344 448262 539046 580552 423822 256466 240875 261878
9537.59 398013 493014 460107 348242 278660 367175 475568 471925
9553.02 421303 368540 363197 417544 506639 502528 405302 306351
9568.45 276427 371626 336806 293099 232331 369715 367556 262263
9583.89 321965 422994 497775 488058 382386 350347 321649 309105
9599.32 292031 339909 538217 507029 382879 377292 384512 339310
9614.75 316138 377596 410509 408000 457838 393812 329924 342781
9630.19 397578 356478 362138 400631 406917 328504 291133 283647
9645.62 281898 377695 426046 378743 426042 451517 358138 324124
9661.05 304821 322306 374161 512465 485604 361159 354735 351674
9676.48 307265 330273 343185 366649 354640 360405 386885 365653
9691.92 391715 391424 371097 371327 306016 322049 316514 357821
9707.35 294108 298461 362554 324262 293285 282615 284867 306292
9722.78 311724 413429 449131 449927 385727 332624 268246 285967
9738.22 239266 318751 328079 350185 351387 431383 405462 403078
9753.65 343157 387102 418025 336737 335295 332846 285841 256805
9769.08 312143 382951 417022 428601 414495 331899 283016 331311
9784.51 276720 315252 351055 350087 279100 218401 345423 378497
9799.95 283786 321431 327744 340661 410441 404000 349659 458789
9815.38 552929 477765 358019 332534 359533 326101 342427 337898
9830.81 323444 272965 252457 319075 394084 361422 420266 391384
9846.25 319536 338888 383817 387936 389195 338651 288221 341470
9861.68 441210 535724 538572 441289 354094 340346 359186 419923
9877.11 473752 468625 437795 433083 334976 271330 244170 248527
9892.55 272286 319936 395952 407836 427917 440066 314501 366495
9907.98 415220 460595 468222 374956 330183 343778 424866 387618
9923.41 320729 308440 367311 398377 511166 444831 319729 346141
9938.84 343407 305133 304595 395134 288128 264766 233964 303431
9954.28 375518 383624 369594 386586 456069 390676 300136 311672
9969.71 317211 276329 332138 380073 360433 408780 391363 309732
9985.14 227558 230727 320858 372783 361393 310535 372579 312485
10000.6 333307 372921 295717 267952 315927 419042 498696 433495
10016 346253 355174 452616 455482 406087 385388 393495 468014
10031.4 430296 348480 284948 323096 373307 315979 355073 346253
10046.9 237568 350908 484771 537030 523223 439509 463104 429338
10062.3 384504 315903 385311 433863 300137 262466 265452 250301
10077.7 264660 298960 334359 328572 352092 365260 503830 453556
10093.2 348026 370624 430587 427570 518656 523564 415100 442421
10108.6 419121 296365 271054 359786 491034 484720 426274 274277
10124 241117 351175 344290 363070 302320 309952 406475 433938
10139.5 347344 280492 325038 294469 329752 387069 350807 295400
10154.9 360992 469257 452770 424326 420644 394699 314226 292920
10170.3 346988 327200 291948 371999 349990 374400 363527 237433
10185.8 254406 232432 313009 383326 348321 394758 367174 411802
10201.2 391318 361118 303615 272401 334838 402902 400010 437512
10216.6 471398 314287 313151 344889 383925 449529 530420 495525
10232.1 371775 368828 481998 498315 475313 352146 245096 266622
10247.5 368252 408246 417250 416283 307980 321058 367970 399222
10262.9 375085 326597 326107 297527 333237 354926 373050 397906
10278.4 390855 363846 309556 361904 372200 405560 451843 419131
10293.8 442674 488219 363356 426391 427554 396072 356189 380647
10309.2 293184 333885 401599 382815 270738 261242 365884 421594
10324.7 430413 452982 420702 397730 325137 287945 329466 265394
10340.1 273216 309504 442110 472614 459425 351252 379282 375154
10355.5 251711 315619 357601 379084 372072 439765 399922 437355
10371 465569 341416 307268 401655 415013 384465 371276 357500
10386.4 313338 401476 433649 421042 341924 248417 257127 352251
10401.8 342577 310967 286303 402904 504310 508540 389452 280481
10417.3 308173 387807 370385 394970 333139 245774 221378 337382
10432.7 374369 268695 259989 295008 338404 315494 302410 373023
10448.1 435209 367006 325411 278228 254911 281886 296571 324681
10463.6 322327 353507 352565 354146 348554 332651 337691 333656
10479 430803 439411 277559 237166 268531 243963 216795 283413
10494.4 362721 449781 426293 313258 277886 334121 296133 338424
10509.9 305008 276099 268943 251663 231101 332916 396072 321266
10525.3 272709 312082 331966 376970 382408 386933 360845 287748
10540.7 354321 329701 373459 368286 430207 426181 464932 494479
10556.2 471517 412415 297316 304196 270088 313706 328606 339830
10571.6 344531 319938 297646 333858 312781 255399 288075 334640
10587 351001 376075 330767 402264 448891 432595 352695 387881
10602.5 330326 321573 290147 354110 385590 376920 306609 286323
10617.9 393179 463811 420731 514837 524064 433603 380130 372384
10633.3 356080 364059 297510 236412 310841 341629 328455 314919
10648.8 385337 362142 341752 300285 307616 266012 314457 310549
10664.2 317379 318777 382537 363602 342044 346777 393477 375891
10679.6 262809 252659 333014 343102 291459 253852 382815 464168
10695.1 425134 401110 427795 403336 318919 330559 401263 410527
10710.5 432921 453429 372931 305205 374612 428630 453569 508758
10725.9 385011 338874 355527 390604 420737 375270 349111 414743
10741.4 346433 308779 309821 371558 380148 384881 353679 344196
10756.8 329976 324202 312732 345713 341091 317402 307670 312614
10772.2 273798 314278 295425 329218 327376 307848 355787 395845
10787.7 490791 463311 396300 388072 356410 314665 298859 326657
10803.1 294460 367025 395258 350008 289164 276149 328068 317599
10818.5 263811 313978 292865 247455 264339 356222 469113 470965
10834 429568 386674 372893 439479 443295 259040 233202 325489
10849.4 349147 272257 266659 305656 314976 434065 458507 468574
10864.8 494281 459733 461410 433516 436416 377690 322097 384077
10880.3 448566 370710 205129 359876 391488 377301 332167 410228
10895.7 485157 414232 327287 330648 320756 279684 266046 282361
10911.1 269254 258350 277001 351662 366273 413875 332806 228916
10926.6 252220 299796 315275 405889 353940 294854 314205 282349
10942 265404 282843 309149 391976 402890 417242 409046 442172
10957.4 438079 362803 316128 364783 417426 350966 317970 306454
10972.9 325384 319154 313951 324678 324007 332537 372119 379115
10988.3 405169 340568 271772 322670 305133 330536 360831 291588
11003.7 315945 340490 354522 271323 325009 385833 361900 342796
11019.2 309269 322772 343593 444456 374725 301277 202037 260389
11034.6 282063 306716 389133 439585 400806 429798 335012 327221
11050 330999 334510 273464 306337 253273 323946 383664 265715
11065.5 344771 384309 389934 364291 297471 234475 198338 236657
11080.9 303612 306443 287267 196857 340006 392137 391460 509840
11096.3 446723 303740 324194 384035 371339 308385 288074 279390
11111.8 319949 332726 289456 264651 288809 287082 275057 269299
11127.2 252396 321440 316996 237554 223782 249573 377622 463915
11142.6 428341 419622 417972 380825 301440 306437 295151 290984
11158.1 265399 256837 307703 346464 347117 342425 289693 361739
11173.5 400192 343478 288172 255239 336089 360326 329394 284095
11188.9 244244 277043 293841 351427 400507 408798 387671 333837
11204.3 266595 267141 266571 267596 288085 318167 393940 432376
11219.8 451531 422891 355545 271190 194894 245171 324472 339584
11235.2 351140 335495 306455 311539 316364 305485 392923 439214
11250.6 309309 295402 231760 276257 412230 428003 404760 395098
11266.1 422875 359999 269138 322858 392611 403564 382648 341099
11281.5 334794 365462 383950 390177 355733 284436 304635 306833
11296.9 367463 391569 296887 264627 388394 378511 418485 479391
11312.4 482388 397926 352720 312220 309920 280921 275604 343532
11327.8 373496 399458 395662 398287 407611 424958 397235 321869
11343.2 267500 265201 291555 277257 315695 354695 286847 288814
11358.7 306230 233133 266361 325572 380869 340864 324331 320484
11374.1 253192 237367 284195 352401 353605 254851 241361 247819
11389.5 310567 380087 347967 287813 281479 313156 332970 375694
11405 417761 377636 372221 378298 363499 315172 356345 357249
11420.4 365011 363785 293175 209902 255836 324144 331078 374824
11435.8 355985 346037 302438 345034 311810 313326 365376 284617
11451.3 361599 406754 388455 292857 327402 314626 291573 297784
11466.7 340925 395034 393130 284989 179312 311297 408974 348433
11482.1 299362 299306 320454 289165 284536 265748 356568 389649
11497.6 349054 378112 350654 337767 337855 386454 371036 310932
11513 347335 295077 263571 282415 268229 232476 179622 237037
11528.4 326300 468198 402568 279360 263514 277747 301671 288249
11543.9 335199 330218 319743 261557 295208 314643 335053 319136
11559.3 306794 245756 340286 306204 279032 257807 286549 219192
11574.7 271363 346763 314934 308623 340843 363994 392742 431137
11590.2 420794 316177 227904 235415 256963 259202 268901 394123
11605.6 476600 438057 417063 437150 366403 256967 248354 258659
11621 293537 302022 420813 492123 504028 386662 268459 322883
11636.5 347189 324229 270388 202469 194207 247372 324101 297501
11651.9 378520 363207 267773 204277 237316 355856 436246 431842
11667.3 339601 301578 314229 274395 376393 370636 318166 333575
11682.8 354082 333242 309891 334517 317130 251714 226669 197259
11698.2 277822 288332 295222 317791 343442 336543 349273 347849
11713.6 377600 357864 351319 271476 287062 343215 352039 348241
11729.1 320130 330105 279032 313232 301276 307590 406995 414426
11744.5 306501 336958 295946 221258 237467 291083 389505 395498
11759.9 338323 300282 370858 379487 356673 277170 346488 314920
11775.4 309340 294161 203086 283219 370298 292162 236158 274934
11790.8 281752 256137 284231 282329 329752 284766 272870 269768
11806.2 252738 253290 328448 330405 232049 236544 265853 352929
11821.7 348026 338726 284960 311661 308862 357638 422290 448153
11837.1 411446 366582 365045 340268 296934 200903 225347 295388
11852.5 290549 353861 301279 234706 314703 327654 366030 357102
11868 373904 350341 302771 264249 271722 341280 372236 317058
11883.4 300117 227535 248062 272189 270563 298266 280699 358001
11898.8 356131 275913 355280 353924 339940 326861 227105 360071
11914.3 392946 322744 273885 211687 231623 262656 229275 329996
11929.7 405829 360947 226845 244982 276975 273743 292622 293247
11945.1 346728 344349 286708 241001 301762 328704 351513 434227
11960.6 295170 299249 394610 362080 368464 329728 252945 262709
11976 265286 318554 321187 322124 277379 270205 273157 286693
11991.4 316652 304658 252498 230829 261677 262428 295302 304254
12006.9 293357 325299 334644 273963 345363 324335 327532 262602
12022.3 259372 292035 327724 362153 357330 396132 402970 357012
12037.7 299895 278068 250455 236894 284691 341265 299467 263519
12053.2 252113 229902 318419 316380 281952 310161 340042 361758
12068.6 324746 334659 327744 385910 484985 502203 412140 360574
12084 319503 351564 388497 252355 236497 335572 320821 287129
12099.5 293503 296378 268256 255847 329694 324309 294782 276624
12114.9 313667 271865 346446 321224 336543 326339 309052 272079
12130.3 322622 426813 421643 340728 369936 328001 334297 427199
12145.8 392948 380490 297011 270378 277927 334354 376333 403434
12161.2 280275 300985 341826 299373 264437 266305 299755 303817
12176.6 311674 348922 378262 329584 258827 245289 197290 215253
12192.1 265541 340983 359631 345244 283503 215221 274878 301588
12207.5 318194 368206 396331 431949 484053 418554 381589 296952
12222.9 248362 275265 311962 310860 270829 268263 279729 287481
12238.4 274150 308289 307934 291740 326830 345113 228854 272001
12253.8 316977 267618 279404 323096 329466 297532 266836 286445
12269.2 313300 362348 335542 308514 353208 343759 306610 222366
12284.7 281493 305753 318722 392393 371279 370444 347568 364414
12300.1 297136 298056 324129 314597 323145 308516 337455 353325
12315.5 334832 323850 357367 325660 344000 364022 308809 298949
12331 321872 371186 318074 287173 241432 286262 371140 421440
12346.4 368498 409691 383776 376762 407180 359833 306383 248986
12361.8 276216 350847 430820 362293 295769 286867 342647 331945
12377.3 283644 252113 339463 341584 335547 345344 302752 290673
12392.7 342442 354076 290335 230421 225117 251625 277072 241163
12408.1 273332 318082 332814 367722 340833 302328 257848 284328
12423.6 350254 332074 327922 422332 410719 268146 182043 227959
12439 292068 319740 331308 322798 279369 222685 244679 262549
12454.4 211317 277051 304446 318141 311150 368641 394370 399723
12469.9 335932 293538 264107 256563 276352 253613 263282 233061
12485.3 313142 397766 392766 339441 280379 275537 258098 205513
12500.7 206423 272377 340067 298178 240653 280130 327117 308738
12516.2 276240 268752 303135 307506 330881 307523 260748 313935
12531.6 348327 359882 344132 318064 301360 285576 275178 307402
12547 338703 346233 310393 349999 364618 288638 247096 251182
12562.5 330355 313437 295617 298844 261842 316754 336408 338811
12577.9 389707 367424 315530 275175 283680 328227 401739 363175
12593.3 262545 236382 278907 281617 301614 270638 217390 203264
12608.8 266135 338241 368392 383253 252445 247280 267533 280724
12624.2 254419 294409 295864 264659 335136 348482 250082 255639
12639.6 283885 233757 259278 300837 282621 297446 272319 291057
12655.1 373541 374996 334919 249060 214978 293202 380870 369605
12670.5 356775 312760 322919 353121 323635 294171 203280 229410
12685.9 277030 271362 227044 290998 251283 281158 317911 345511
12701.3 385131 268921 185303 160737 296643 300612 301024 265006
12716.8 347716 352295 347177 294678 322289 379699 372038 316245
12732.2 309897 295794 255655 261876 255151 231504 333536 382210
12747.6 417799 404070 388535 419307 398483 323426 321428 395734
12763.1 405051 364544 338608 366983 420753 400960 300032 339497
12778.5 386759 420346 380368 324075 337926 317597 254436 260442
12793.9 344915 366909 262993 242647 257738 321395 306455 274916
12809.4 308796 308367 289875 318941 358676 332790 294745 287625
12824.8 246590 207110 219079 299429 296588 267858 228399 170510
12840.2 179666 259983 307394 264291 271708 287003 263143 311523
12855.7 348636 310913 302444 323173 238586 283834 341844 352690
12871.1 324214 349657 377393 386210 350595 306690 313839 300310
12886.5 311888 293047 227079 186521 227425 327378 361423 315688
12902 319189 350595 344631 361320 342686 275780 355626 335072
12917.4 289120 217832 292639 313384 301070 246026 164968 213638
12932.8 290481 338381 303377 325568 421796 427145 392170 469145
12948.3 476897 419080 350374 354027 370077 311163 293964 276297
12963.7 284996 351825 287864 370090 353752 287650 264251 232872
12979.1 254414 388680 427174 369260 330827 370473 332501 305458
12994.6 203342 241294 302772 345614 341931 367198 371827 313960
13010 308415 268084 239825 284796 339608 341432 324113 265045
13025.4 197912 221687 292092 351397 357477 423893 436587 379719
13040.9 386219 385892 327792 294051 186458 211192 292104 297797
13056.3 270796 274586 268243 248175 272345 304860 275035 299184
13071.7 279410 289253 281390 221884 229639 278263 298406 282267
13087.2 322970 338987 274616 294760 334598 324856 250825 267299
13102.6 272813 253775 305720 313169 248220 215637 291337 326676
13118 322545 274866 259893 266456 343705 313687 275558 212852
13133.5 324718 382552 353729 318536 298889 332114 347255 367138
13148.9 322747 300839 248256 217260 338756 411600 348716 267513
13164.3 242432 199050 269122 254101 283126 271042 345659 370528
13179.8 326498 303674 244309 199597 214631 278989 235005 220227
13195.2 321981 341807 372176 363566 309790 285274 379409 356905
13210.6 319470 379562 365231 346399 316880 257164 243195 142917
13226.1 222835 277199 368733 375532 298370 284642 244509 227180
13241.5 275042 254568 232953 247433 295538 289780 257110 229286
13256.9 229795 276356 253109 215107 261278 302233 362218 415504
13272.4 327642 263432 245975 228638 265531 312727 323020 279626
13287.8 317276 219915 247298 286793 299999 322267 380051 386557
13303.2 404914 369966 214830 209642 249546 319189 285682 283292
13318.7 382937 337162 311848 265925 252564 218450 231796 318588
13334.1 347849 323658 363160 309004 280035 269033 262757 267180
13349.5 238816 328550 463308 390636 266702 385029 367012 221063
13365 293783 341690 398267 332700 259047 258685 324841 292314
13380.4 246510 300752 256431 241262 252570 247392 298481 298606
13395.8 282926 284375 306512 310477 277916 237613 269215 361984
13411.3 455782 410189 333879 348943 369723 329278 315983 318222
13426.7 337000 384659 398940 370845 362381 354693 246455 287771
13442.1 330583 335855 317402 277207 308181 336167 341169 400513
13457.6 327396 371242 394744 367624 282947 270518 334502 258291
13473 286736 329026 348223 351006 349770 300786 262409 233989
13488.4 220167 247202 359931 319901 345702 337648 293038 300478
13503.9 250751 319084 338237 305590 330223 298704 284712 329973
13519.3 324748 259771 230739 303045 356976 381502 315779 218890
13534.7 303673 288553 276348 336306 317504 274748 265054 263701
13550.2 251929 403711 400251 321577 246687 201446 245489 298233
13565.6 207110 234769 288369 303122 324004 359269 316776 332863
13581 348103 373564 374448 265050 254221 223636 230812 255709
13596.5 291227 326154 398516 409168 307925 214437 208437 263844
13611.9 311855 344332 273664 313399 342029 305071 333130 330773
13627.3 290282 318031 394804 365034 294471 248763 230389 221657
13642.8 230717 246056 276806 286012 266481 300051 294203 240448
13658.2 223683 220416 289143 316432 254515 208401 213606 224978
13673.6 312392 391456 348456 342647 355872 333549 324609 265670
13689.1 253833 235635 275513 294260 349572 319639 281211 280329
13704.5 344353 394509 360216 219575 255164 301867 290715 393921
13719.9 429173 362519 340405 328743 443900 414114 393161 273725
13735.4 229457 212189 250820 254263 308463 285886 267324 224634
13750.8 279143 325279 301799 301339 296694 326885 276051 274534
13766.2 243085 275644 308141 272627 224890 199965 304029 381699
13781.7 312702 301225 291768 236869 311374 311454 290871 290697
13797.1 234839 270213 270430 288890 320030 236442 173177 238422
13812.5 235797 302850 320527 271838 293490 329807 413361 403820
13828 329198 362057 418072 403031 332943 309850 294269 281444
13843.4 257059 305521 389974 417978 345760 378511 428640 411787
13858.8 409610 387829 342154 286159 227226 284646 337148 276044
13874.3 230149 227997 218902 263531 320110 459403 450715 268761
13889.7 166648 217500 211321 223142 224159 268161 336055 288455
13905.1 310844 283711 289416 301519 274197 279971 253285 227541
13920.6 251904 196107 221325 206861 227727 280649 308601 329327
13936 371349 451281 401069 331374 312305 268676 339446 344468
13951.4 309623 262545 266335 277983 276191 340471 313931 302375
13966.9 304060 299891 290326 299065 262734 201659 213465 277899
13982.3 320528 292428 301591 316169 383467 348487 239966 297966
13997.7 255444 224377 251602 324731 313774 230166 277975 300809
14013.2 234173 243191 292437 348260 359274 398335 372856 289597
14028.6 271621 292435 276213 260989 225023 219661 248866 224537
14044 286452 353810 360894 341112 270044 246332 304728 254527
14059.5 239429 254821 216707 219186 218092 190836 290606 341242
14074.9 339031 300571 273797 252033 233598 228801 207179 235236
14090.3 260044 252930 241233 229974 243966 267721 345510 404982
14105.8 331530 330350 292942 210018 205065 266062 335014 320137
14121.2 326534 320126 303759 302425 303053 318077 280941 253547
14136.6 286198 267023 426250 490215 393806 318682 265154 228269
14152.1 251253 293286 294822 230989 226460 194891 282648 359448
14167.5 328064 341276 379516 386187 375197 339928 327292 321294
14182.9 269075 296728 378175 373300 306108 261264 309377 356375
14198.3 376982 367890 281797 235019 269489 203833 222049 238348
14213.8 286320 288229 279136 372262 418399 339842 316246 260662
14229.2 241676 303482 289567 246521 301554 352978 333238 302441
14244.6 273137 233567 279763 279325 286289 280791 286961 300343
14260.1 341341 317358 264967 299806 271303 254271 245765 255075
14275.5 234595 232251 194476 252951 225523 257623 343172 348811
14290.9 372115 339059 285644 285812 254732 277974 320932 341640
14306.4 272624 244745 216877 209105 291356 302077 232927 236735
14321.8 285435 342297 354985 330946 261418 172215 239643 326483
14337.2 329582 326976 260353 281275 317069 244694 207477 298367
14352.7 317280 332446 353350 309176 204814 252259 246491 290181
14368.1 309184 301175 321283 343337 338590 299902 281506 195084
14383.5 238140 320142 322982 300272 273755 272562 201717 208770
14399 242635 287309 225824 250867 228003 303205 364233 328774
14414.4 331820 293484 283714 330538 335380 273760 284146 323338
14429.8 267227 256873 298319 337826 284110 266770 365346 382186
14445.3 398511 287141 317021 259471 260549 252192 274398 299665
14460.7 324122 337225 290177 300963 330619 317089 313029 320364
14476.1 274707 309696 320721 260511 212560 292610 376548 370608
14491.6 324302 343431 382087 323250 280269 336246 349716 383021
14507 300433 283734 285787 244761 214618 196810 181782 263851
14522.4 276777 327112 423376 358311 270131 336087 352609 355894
14537.9 299172 291716 322795 302090 334056 383058 368640 333522
14553.3 262145 206659 224167 244227 280928 312253 285320 248038
14568.7 273304 250408 243799 276496 336300 325048 290527 267396
14584.2 264308 283564 331708 315757 344193 364189 336544 298298
14599.6 264124 220775 312546 348217 299838 323368 291740 271087
14615 270321 241731 286907 379807 280123 232226 292127 322870
14630.5 355118 321198 234914 174552 162873 285066 376143 391776
14645.9 351426 209269 223687 213864 237330 212842 159706 210495
14661.3 274095 384591 335782 273413 265652 334891 372602 292401
14676.8 244200 292536 255598 260119 300325 280900 318016 276520
14692.2 263356 240920 248154 287634 258224 233993 236520 290298
14707.6 362386 364123 361209 339247 212600 223648 234330 313218
14723.1 285488 327372 314605 275561 243014 337358 326790 256013
14738.5 262620 324430 333873 356099 359982 307769 311688 281753
14753.9 288732 296137 286001 270283 267395 261201 280438 290373
14769.4 290644 333123 373743 338282 279318 195372 204815 186363
14784.8 244424 289850 306646 266755 282235 291974 285843 332251
14800.2 358341 336149 311500 263865 235978 243435 316608 359105
14815.7 348485 343080 357242 368789 290018 308618 406150 340570
14831.1 252770 206793 266999 281401 311147 281290 198822 237254
14846.5 211948 239056 308614 362042 341466 273157 219742 216344
14862 275551 218772 197137 229613 292596 316307 286298 293867
14877.4 230019 170235 172226 288782 306970 260754 213283 210248
14892.8 229956 206738 168606 201872 215338 275652 257118 267530
14908.3 278040 255187 288570 245143 277540 337695 398266 370923
14923.7 287281 234251 239468 223707 272016 271467 285102 257021
14939.1 203101 199676 286676 326385 300159 333972 287530 249642
14954.6 234645 298426 328180 236602 235448 276868 258137 293832
14970 351320 335169 295820 260522 252308 257377 244333 269920
14985.4 265890 248577 246945 279392 299609 267603 204398 243701
15000.9 277551 265717 262260 324211 317056 265690 204101 269704
15016.3 274588 247595 263722 274029 249795 289762 285190 316407
15031.7 248339 220685 235582 305963 341714 327651 327684 323589
15047.2 263486 269196 345951 381812 347792 372471 432952 397641
15062.6 345326 340835 254513 196804 197208 223651 262105 309049
15078 311745 301778 261880 256963 282982 259555 266015 284244
15093.5 287061 197731 281664 304339 276442 254270 243516 295426
15108.9 355079 311302 251042 253086 229715 285821 274351 184618
15124.3 253505 325544 335097 344176 288918 266902 281253 248425
15139.8 260198 276445 253599 283142 370015 386338 334677 250857
15155.2 260898 281442 230558 218093 201762 121622 159261 225602
15170.6 262197 304873 339279 342123 305931 303486 343616 336063
15186.1 316670 312650 301217 275758 296244 337978 333944 275228
15201.5 275916 281256 269686 253912 222924 217989 231848 271314
15216.9 340532 364072 270710 186006 204539 210642 228236 227100
15232.4 250319 300501 240646 218878 267436 293851 268801 252539
15247.8 314011 288827 272664 297734 337677 338204 305696 294770
15263.2 303271 270914 262916 211217 240210 356857 334731 273326
15278.7 209539 215110 236794 226928 219631 275309 302812 311134
15294.1 299156 354019 338854 290354 324768 309658 222695 236629
15309.5 293783 289713 199820 226992 270513 316760 233581 172032
15325 236527 305646 310960 299287 237058 186358 302610 351580
15340.4 299835 276282 364293 360527 299822 240259 244201 274889
15355.8 303154 278611 228475 271471 343206 346517 267920 241077
15371.3 276391 301647 235809 213606 248726 348122 308502 306867
15386.7 139664 214106 207203 340331 412684 350836 311930 334696
15402.1 326159 236865 239420 257830 266845 277863 239725 221122
15417.6 234307 300741 287059 271849 251162 244902 317788 323168
15433 353416 334242 296499 270594 313637 323414 276575 252156
15448.4 246991 263441 284936 381042 360538 293280 259376 286144
15463.9 351898 349727 331309 308482 337543 329261 236706 214795
15479.3 339051 367295 326941 324882 291672 185594 221406 315427
15494.7 362828 375907 306997 307832 359611 341387 345263 331553
15510.2 347993 362941 346975 263653 267187 353314 324609 361457
15525.6 338955 312331 220609 188291 231216 273501 293870 314642
15541 297711 300017 302917 321807 306366 280103 256980 242969
15556.5 227557 355537 388862 301667 239424 305424 307367 283106
15571.9 253701 250856 293250 311910 319995 309363 293030 295558
15587.3 307244 304204 299019 261824 295022 366182 389123 319611
15602.8 224945 245106 265835 303810 306205 298167 302043 273640
15618.2 308762 334595 262536 257205 232532 180684 292511 317959
15633.6 307431 302065 386034 332895 296440 248337 292116 242117
15649.1 262970 307567 284567 288194 306584 334106 390648 379467
15664.5 381622 311639 272295 236213 197610 216173 276116 307314
15679.9 234059 235354 223787 245791 279245 252900 346677 421134
15695.3 393622 290888 241518 266803 252342 277463 291932 317054
15710.8 260638 189308 193563 201710 181187 283003 323702 336968
15726.2 288171 333096 285750 299763 363457 269527 274642 325822
15741.6 338022 306000 291995 285010 252138 295941 250171 245124
15757.1 209824 238329 237364 312489 358526 354659 384583 325627
15772.5 295982 277822 251384 201204 238102 290845 304889 299701
15787.9 313469 290876 291785 270709 328100 388702 416457 522416
##END=
